EKG,T,,,,,
332,2,111.1321111,0.039369907,1.020408163,0.018583886,0
335,3,,,,,
340,4,,,,,
345,5,,,,,
351,6,,,,,
355,7,,,,,
357,8,,,,,
357,9,,,,,
356,10,,,,,
354,11,,,,,
339,19,,,,,
349,27,,,,,
360,35,,,,,
348,45,,,,,
375,53,,,,,
354,61,,,,,
376,69,,,,,
371,77,,,,,
364,86,,,,,
382,94,,,,,
358,102,,,,,
382,112,,,,,
349,121,,,,,
358,131,,,,,
325,140,,,,,
331,149,,,,,
314,158,,,,,
317,167,,,,,
316,178,,,,,
312,187,,,,,
324,196,,,,,
311,205,,,,,
329,215,,,,,
310,224,,,,,
335,233,,,,,
312,242,,,,,
339,252,,,,,
313,262,,,,,
337,271,,,,,
323,280,,,,,
348,289,,,,,
334,299,,,,,
338,308,,,,,
328,318,,,,,
316,327,,,,,
323,336,,,,,
311,346,,,,,
329,355,,,,,
309,364,,,,,
332,373,,,,,
293,384,,,,,
317,393,,,,,
415,402,,,,,
595,411,,,,,
425,420,,,,,
247,430,,,,,
243,439,,,,,
305,449,,,,,
314,458,,,,,
314,467,,,,,
329,477,,,,,
316,486,,,,,
339,495,,,,,
319,504,,,,,
350,515,,,,,
322,524,,,,,
355,533,,,,,
328,542,,,,,
361,551,,,,,
335,561,,,,,
364,570,,,,,
348,580,,,,,
366,589,,,,,
362,599,,,,,
361,608,,,,,
366,617,,,,,
352,626,,,,,
370,635,,,,,
343,646,,,,,
361,655,,,,,
318,664,,,,,
339,673,,,,,
301,683,,,,,
329,692,,,,,
299,701,,,,,
326,711,,,,,
305,720,,,,,
323,730,,,,,
313,739,,,,,
319,748,,,,,
323,757,,,,,
314,766,,,,,
330,777,,,,,
311,786,,,,,
334,795,,,,,
312,804,,,,,
350,814,,,,,
323,823,,,,,
354,832,,,,,
315,841,,,,,
335,851,,,,,
306,861,,,,,
326,870,,,,,
311,879,,,,,
320,888,,,,,
320,898,,,,,
306,907,,,,,
299,917,,,,,
375,926,,,,,
572,935,,,,,
471,945,,,,,
274,954,,,,,
223,963,,,,,
311,972,,,,,
304,983,,,,,
337,992,,,,,
312,1001,,,,,
342,1011,,,,,
318,1021,,,,,
351,1032,,,,,
324,1043,,,,,
360,1053,,,,,
332,1063,,,,,
365,1074,,,,,
339,1084,,,,,
373,1094,,,,,
351,1104,,,,,
380,1116,,,,,
360,1126,,,,,
382,1136,,,,,
361,1146,,,,,
375,1157,,,,,
359,1167,,,,,
359,1178,,,,,
343,1188,,,,,
331,1199,,,,,
327,1209,,,,,
315,1219,,,,,
327,1229,,,,,
312,1240,,,,,
334,1251,,,,,
313,1261,,,,,
342,1271,,,,,
314,1282,,,,,
346,1292,,,,,
317,1302,,,,,
349,1313,,,,,
313,1324,,,,,
349,1334,,,,,
325,1344,,,,,
358,1354,,,,,
327,1364,,,,,
342,1376,,,,,
311,1386,,,,,
329,1396,,,,,
311,1406,,,,,
328,1417,,,,,
315,1427,,,,,
311,1437,,,,,
305,1448,,,,,
457,1459,,,,,
564,1469,,,,,
325,1479,,,,,
234,1489,,,,,
276,1500,,,,,
330,1511,,,,,
312,1521,,,,,
342,1531,,,,,
317,1542,,,,,
350,1552,,,,,
321,1562,,,,,
357,1572,,,,,
328,1584,,,,,
364,1594,,,,,
336,1604,,,,,
370,1614,,,,,
347,1625,,,,,
378,1635,,,,,
358,1646,,,,,
381,1656,,,,,
359,1667,,,,,
375,1677,,,,,
363,1687,,,,,
369,1697,,,,,
352,1709,,,,,
337,1719,,,,,
329,1729,,,,,
313,1739,,,,,
322,1750,,,,,
306,1760,,,,,
328,1770,,,,,
307,1781,,,,,
335,1792,,,,,
309,1802,,,,,
341,1812,,,,,
310,1822,,,,,
345,1832,,,,,
312,1844,,,,,
345,1854,,,,,
320,1864,,,,,
356,1874,,,,,
324,1885,,,,,
339,1895,,,,,
306,1905,,,,,
326,1916,,,,,
306,1927,,,,,
324,1937,,,,,
312,1947,,,,,
314,1957,,,,,
296,1968,,,,,
431,1979,,,,,
565,1989,,,,,
350,1999,,,,,
215,2010,,,,,
263,2020,,,,,
323,2030,,,,,
310,2041,,,,,
337,2052,,,,,
313,2062,,,,,
349,2072,,,,,
322,2082,,,,,
358,2093,,,,,
328,2103,,,,,
364,2114,,,,,
336,2124,,,,,
371,2135,,,,,
348,2145,,,,,
380,2155,,,,,
358,2165,,,,,
385,2177,,,,,
365,2187,,,,,
380,2197,,,,,
366,2207,,,,,
372,2217,,,,,
352,2228,,,,,
341,2238,,,,,
330,2249,,,,,
313,2259,,,,,
319,2270,,,,,
305,2280,,,,,
327,2290,,,,,
306,2300,,,,,
333,2312,,,,,
309,2322,,,,,
340,2332,,,,,
312,2342,,,,,
348,2353,,,,,
315,2363,,,,,
350,2374,,,,,
324,2384,,,,,
359,2395,,,,,
327,2405,,,,,
344,2415,,,,,
309,2425,,,,,
329,2436,,,,,
309,2447,,,,,
328,2457,,,,,
312,2467,,,,,
317,2478,,,,,
300,2488,,,,,
430,2498,,,,,
556,2509,,,,,
347,2520,,,,,
211,2530,,,,,
265,2540,,,,,
326,2550,,,,,
312,2561,,,,,
339,2571,,,,,
316,2582,,,,,
349,2592,,,,,
322,2603,,,,,
357,2613,,,,,
327,2623,,,,,
366,2633,,,,,
338,2644,,,,,
374,2655,,,,,
347,2665,,,,,
382,2675,,,,,
361,2685,,,,,
388,2696,,,,,
366,2707,,,,,
384,2717,,,,,
366,2727,,,,,
376,2738,,,,,
354,2748,,,,,
341,2758,,,,,
327,2768,,,,,
314,2780,,,,,
322,2790,,,,,
308,2800,,,,,
325,2810,,,,,
307,2821,,,,,
333,2831,,,,,
309,2842,,,,,
341,2852,,,,,
315,2863,,,,,
348,2873,,,,,
314,2883,,,,,
351,2893,,,,,
327,2904,,,,,
359,2915,,,,,
324,2925,,,,,
342,2935,,,,,
309,2946,,,,,
330,2956,,,,,
309,2966,,,,,
325,2977,,,,,
311,2988,,,,,
313,2998,,,,,
303,3008,,,,,
453,3018,,,,,
528,3028,,,,,
315,3040,,,,,
227,3050,,,,,
278,3060,,,,,
328,3070,,,,,
312,3081,,,,,
339,3091,,,,,
318,3101,,,,,
347,3112,,,,,
321,3123,,,,,
358,3133,,,,,
329,3143,,,,,
366,3153,,,,,
338,3164,,,,,
373,3175,,,,,
348,3185,,,,,
383,3195,,,,,
359,3206,,,,,
387,3216,,,,,
366,3226,,,,,
384,3236,,,,,
365,3248,,,,,
372,3258,,,,,
347,3268,,,,,
336,3278,,,,,
323,3289,,,,,
316,3299,,,,,
320,3310,,,,,
305,3320,,,,,
323,3331,,,,,
307,3341,,,,,
333,3351,,,,,
311,3361,,,,,
339,3373,,,,,
316,3383,,,,,
346,3393,,,,,
318,3403,,,,,
351,3414,,,,,
332,3424,,,,,
359,3434,,,,,
329,3445,,,,,
342,3456,,,,,
317,3466,,,,,
332,3476,,,,,
316,3486,,,,,
331,3496,,,,,
321,3508,,,,,
312,3518,,,,,
321,3528,,,,,
486,3538,,,,,
528,3549,,,,,
298,3559,,,,,
249,3569,,,,,
296,3580,,,,,
335,3591,,,,,
315,3601,,,,,
342,3611,,,,,
323,3621,,,,,
352,3632,,,,,
328,3643,,,,,
357,3653,,,,,
335,3663,,,,,
365,3674,,,,,
342,3684,,,,,
372,3694,,,,,
353,3705,,,,,
380,3716,,,,,
364,3726,,,,,
387,3736,,,,,
371,3746,,,,,
381,3757,,,,,
368,3767,,,,,
369,3778,,,,,
350,3788,,,,,
335,3799,,,,,
327,3809,,,,,
318,3819,,,,,
324,3829,,,,,
310,3841,,,,,
327,3851,,,,,
310,3861,,,,,
334,3871,,,,,
311,3881,,,,,
337,3892,,,,,
315,3902,,,,,
341,3913,,,,,
312,3923,,,,,
342,3934,,,,,
324,3944,,,,,
352,3954,,,,,
327,3964,,,,,
339,3976,,,,,
310,3986,,,,,
328,3996,,,,,
312,4006,,,,,
325,4017,,,,,
315,4027,,,,,
313,4038,,,,,
297,4048,,,,,
435,4059,,,,,
566,4069,,,,,
369,4079,,,,,
239,4089,,,,,
275,4100,,,,,
324,4111,,,,,
309,4121,,,,,
334,4131,,,,,
316,4142,,,,,
343,4152,,,,,
321,4162,,,,,
351,4173,,,,,
327,4184,,,,,
356,4194,,,,,
333,4204,,,,,
364,4214,,,,,
345,4225,,,,,
374,4235,,,,,
357,4246,,,,,
381,4256,,,,,
365,4267,,,,,
376,4277,,,,,
364,4287,,,,,
367,4297,,,,,
350,4308,,,,,
336,4319,,,,,
325,4329,,,,,
311,4339,,,,,
317,4349,,,,,
304,4360,,,,,
322,4371,,,,,
306,4381,,,,,
328,4391,,,,,
309,4402,,,,,
335,4412,,,,,
309,4422,,,,,
336,4432,,,,,
311,4444,,,,,
339,4454,,,,,
313,4464,,,,,
346,4474,,,,,
328,4485,,,,,
349,4495,,,,,
320,4506,,,,,
330,4516,,,,,
309,4527,,,,,
322,4537,,,,,
311,4547,,,,,
321,4557,,,,,
314,4568,,,,,
294,4579,,,,,
364,4589,,,,,
546,4599,,,,,
486,4610,,,,,
243,4620,,,,,
265,4630,,,,,
297,4641,,,,,
328,4652,,,,,
309,4662,,,,,
337,4672,,,,,
315,4682,,,,,
345,4692,,,,,
322,4704,,,,,
352,4714,,,,,
330,4724,,,,,
360,4734,,,,,
340,4745,,,,,
367,4755,,,,,
353,4765,,,,,
377,4776,,,,,
365,4787,,,,,
381,4797,,,,,
371,4807,,,,,
377,4817,,,,,
368,4828,,,,,
364,4839,,,,,
348,4849,,,,,
327,4859,,,,,
326,4870,,,,,
309,4880,,,,,
324,4890,,,,,
306,4900,,,,,
326,4912,,,,,
306,4922,,,,,
333,4932,,,,,
310,4942,,,,,
336,4953,,,,,
312,4963,,,,,
338,4974,,,,,
310,4984,,,,,
339,4995,,,,,
316,5005,,,,,
335,5015,,,,,
315,5025,,,,,
343,5037,,,,,
330,5047,,,,,
343,5057,,,,,
323,5067,,,,,
325,5078,,,,,
315,5088,,,,,
318,5098,,,,,
320,5109,,,,,
319,5120,,,,,
323,5130,,,,,
296,5140,,,,,
413,5150,,,,,
573,5160,,,,,
451,5172,,,,,
220,5182,,,,,
279,5192,,,,,
299,5202,,,,,
334,5213,,,,,
309,5223,,,,,
339,5233,,,,,
317,5244,,,,,
346,5255,,,,,
326,5265,,,,,
351,5275,,,,,
334,5285,,,,,
356,5296,,,,,
343,5307,,,,,
362,5317,,,,,
356,5327,,,,,
373,5338,,,,,
372,5348,,,,,
380,5358,,,,,
380,5369,,,,,
374,5380,,,,,
380,5390,,,,,
357,5400,,,,,
355,5410,,,,,
323,5421,,,,,
329,5431,,,,,
304,5442,,,,,
328,5452,,,,,
301,5463,,,,,
327,5473,,,,,
303,5483,,,,,
331,5493,,,,,
306,5505,,,,,
335,5515,,,,,
312,5525,,,,,
336,5535,,,,,
316,5545,,,,,
335,5556,,,,,
318,5566,,,,,
334,5577,,,,,
320,5587,,,,,
330,5598,,,,,
322,5608,,,,,
332,5618,,,,,
339,5628,,,,,
337,5640,,,,,
342,5650,,,,,
321,5660,,,,,
329,5670,,,,,
313,5681,,,,,
335,5691,,,,,
313,5702,,,,,
338,5712,,,,,
304,5723,,,,,
343,5733,,,,,
481,5743,,,,,
591,5753,,,,,
319,5764,,,,,
243,5775,,,,,
270,5785,,,,,
325,5795,,,,,
309,5806,,,,,
333,5816,,,,,
319,5826,,,,,
337,5837,,,,,
329,5848,,,,,
341,5858,,,,,
338,5868,,,,,
346,5878,,,,,
349,5889,,,,,
352,5899,,,,,
364,5910,,,,,
363,5920,,,,,
383,5931,,,,,
373,5941,,,,,
395,5951,,,,,
372,5961,,,,,
396,5972,,,,,
366,5983,,,,,
377,5993,,,,,
334,6003,,,,,
342,6013,,,,,
308,6024,,,,,
327,6035,,,,,
301,6045,,,,,
325,6055,,,,,
302,6066,,,,,
323,6076,,,,,
311,6086,,,,,
328,6096,,,,,
316,6108,,,,,
328,6118,,,,,
321,6128,,,,,
327,6138,,,,,
325,6149,,,,,
323,6159,,,,,
329,6170,,,,,
320,6180,,,,,
331,6191,,,,,
316,6201,,,,,
335,6211,,,,,
316,6221,,,,,
337,6232,,,,,
313,6243,,,,,
348,6253,,,,,
328,6263,,,,,
354,6274,,,,,
322,6284,,,,,
340,6294,,,,,
310,6305,,,,,
333,6316,,,,,
315,6326,,,,,
334,6336,,,,,
315,6346,,,,,
317,6356,,,,,
377,6368,,,,,
566,6378,,,,,
479,6388,,,,,
244,6398,,,,,
251,6409,,,,,
299,6419,,,,,
321,6429,,,,,
315,6440,,,,,
333,6451,,,,,
321,6461,,,,,
344,6471,,,,,
325,6481,,,,,
352,6492,,,,,
330,6503,,,,,
358,6513,,,,,
337,6523,,,,,
371,6534,,,,,
350,6544,,,,,
383,6554,,,,,
364,6564,,,,,
394,6576,,,,,
375,6586,,,,,
394,6596,,,,,
372,6606,,,,,
379,6617,,,,,
351,6627,,,,,
343,6638,,,,,
322,6648,,,,,
319,6659,,,,,
314,6669,,,,,
310,6679,,,,,
317,6689,,,,,
307,6701,,,,,
323,6711,,,,,
308,6721,,,,,
330,6731,,,,,
312,6742,,,,,
336,6752,,,,,
313,6762,,,,,
340,6773,,,,,
313,6784,,,,,
341,6794,,,,,
313,6804,,,,,
335,6814,,,,,
311,6824,,,,,
336,6836,,,,,
315,6846,,,,,
332,6856,,,,,
317,6866,,,,,
331,6877,,,,,
314,6887,,,,,
331,6897,,,,,
335,6908,,,,,
340,6919,,,,,
337,6929,,,,,
325,6939,,,,,
327,6949,,,,,
316,6960,,,,,
331,6971,,,,,
316,6981,,,,,
335,6991,,,,,
304,7002,,,,,
362,7012,,,,,
505,7022,,,,,
551,7033,,,,,
284,7044,,,,,
255,7054,,,,,
283,7064,,,,,
331,7074,,,,,
309,7085,,,,,
335,7095,,,,,
319,7106,,,,,
343,7116,,,,,
327,7127,,,,,
344,7137,,,,,
335,7147,,,,,
347,7157,,,,,
342,7169,,,,,
353,7179,,,,,
358,7189,,,,,
363,7199,,,,,
377,7209,,,,,
372,7220,,,,,
389,7230,,,,,
376,7241,,,,,
393,7251,,,,,
365,7262,,,,,
376,7272,,,,,
334,7282,,,,,
345,7292,,,,,
309,7304,,,,,
330,7314,,,,,
300,7324,,,,,
326,7334,,,,,
302,7345,,,,,
326,7355,,,,,
307,7366,,,,,
328,7376,,,,,
309,7387,,,,,
325,7397,,,,,
315,7407,,,,,
326,7417,,,,,
319,7428,,,,,
324,7439,,,,,
325,7449,,,,,
321,7459,,,,,
327,7470,,,,,
318,7480,,,,,
333,7490,,,,,
315,7501,,,,,
335,7512,,,,,
315,7522,,,,,
339,7532,,,,,
311,7542,,,,,
348,7553,,,,,
329,7563,,,,,
355,7574,,,,,
321,7584,,,,,
340,7595,,,,,
313,7605,,,,,
335,7615,,,,,
314,7625,,,,,
334,7636,,,,,
311,7647,,,,,
319,7657,,,,,
419,7667,,,,,
595,7677,,,,,
444,7688,,,,,
249,7699,,,,,
270,7709,,,,,
306,7719,,,,,
320,7730,,,,,
314,7740,,,,,
330,7750,,,,,
317,7760,,,,,
341,7772,,,,,
322,7782,,,,,
348,7792,,,,,
328,7802,,,,,
359,7813,,,,,
335,7823,,,,,
365,7834,,,,,
346,7844,,,,,
379,7855,,,,,
360,7865,,,,,
388,7875,,,,,
369,7885,,,,,
388,7896,,,,,
365,7907,,,,,
371,7917,,,,,
344,7927,,,,,
336,7938,,,,,
315,7948,,,,,
314,7958,,,,,
311,7969,,,,,
307,7980,,,,,
315,7990,,,,,
304,8000,,,,,
319,8010,,,,,
303,8020,,,,,
325,8032,,,,,
306,8042,,,,,
331,8052,,,,,
307,8062,,,,,
335,8073,,,,,
310,8083,,,,,
338,8093,,,,,
309,8104,,,,,
333,8115,,,,,
310,8125,,,,,
335,8135,,,,,
313,8145,,,,,
332,8156,,,,,
315,8167,,,,,
329,8177,,,,,
318,8187,,,,,
329,8198,,,,,
315,8208,,,,,
329,8218,,,,,
339,8228,,,,,
338,8240,,,,,
339,8250,,,,,
319,8260,,,,,
331,8270,,,,,
314,8281,,,,,
333,8291,,,,,
313,8302,,,,,
334,8312,,,,,
294,8323,,,,,
414,8333,,,,,
564,8343,,,,,
498,8353,,,,,
244,8365,,,,,
275,8375,,,,,
296,8385,,,,,
330,8395,,,,,
310,8406,,,,,
332,8416,,,,,
321,8426,,,,,
339,8437,,,,,
327,8448,,,,,
339,8458,,,,,
336,8468,,,,,
344,8478,,,,,
347,8488,,,,,
349,8500,,,,,
366,8510,,,,,
362,8520,,,,,
383,8530,,,,,
371,8541,,,,,
392,8551,,,,,
371,8561,,,,,
394,8572,,,,,
361,8583,,,,,
373,8593,,,,,
329,8603,,,,,
340,8613,,,,,
306,8624,,,,,
326,8635,,,,,
302,8645,,,,,
325,8655,,,,,
302,8666,,,,,
325,8676,,,,,
306,8686,,,,,
324,8697,,,,,
314,8708,,,,,
324,8718,,,,,
318,8728,,,,,
323,8738,,,,,
324,8749,,,,,
323,8759,,,,,
332,8770,,,,,
320,8780,,,,,
334,8791,,,,,
319,8801,,,,,
339,8811,,,,,
315,8821,,,,,
341,8833,,,,,
318,8843,,,,,
344,8853,,,,,
313,8863,,,,,
347,8873,,,,,
328,8884,,,,,
357,8894,,,,,
327,8905,,,,,
340,8915,,,,,
314,8926,,,,,
334,8936,,,,,
318,8946,,,,,
334,8956,,,,,
319,8968,,,,,
315,8978,,,,,
385,8988,,,,,
572,8998,,,,,
492,9009,,,,,
253,9019,,,,,
256,9030,,,,,
297,9040,,,,,
329,9051,,,,,
316,9061,,,,,
339,9071,,,,,
319,9081,,,,,
347,9092,,,,,
326,9103,,,,,
356,9113,,,,,
330,9123,,,,,
361,9134,,,,,
340,9144,,,,,
371,9154,,,,,
354,9165,,,,,
383,9176,,,,,
369,9186,,,,,
394,9196,,,,,
381,9206,,,,,
395,9217,,,,,
380,9227,,,,,
382,9238,,,,,
360,9248,,,,,
345,9259,,,,,
329,9269,,,,,
314,9279,,,,,
318,9289,,,,,
304,9300,,,,,
317,9311,,,,,
301,9321,,,,,
322,9331,,,,,
305,9341,,,,,
330,9352,,,,,
308,9363,,,,,
335,9373,,,,,
311,9383,,,,,
339,9394,,,,,
313,9404,,,,,
334,9414,,,,,
313,9424,,,,,
333,9436,,,,,
311,9446,,,,,
337,9456,,,,,
315,9466,,,,,
318,9477,,,,,
315,9487,,,,,
326,9498,,,,,
321,9508,,,,,
333,9519,,,,,
336,9529,,,,,
331,9539,,,,,
336,9549,,,,,
316,9560,,,,,
329,9571,,,,,
315,9581,,,,,
336,9591,,,,,
311,9602,,,,,
335,9612,,,,,
308,9622,,,,,
403,9633,,,,,
532,9644,,,,,
456,9654,,,,,
215,9664,,,,,
255,9674,,,,,
288,9684,,,,,
326,9696,,,,,
313,9706,,,,,
336,9716,,,,,
323,9726,,,,,
339,9737,,,,,
333,9747,,,,,
341,9757,,,,,
339,9768,,,,,
343,9779,,,,,
350,9789,,,,,
347,9799,,,,,
364,9809,,,,,
361,9820,,,,,
391,9831,,,,,
379,9841,,,,,
401,9851,,,,,
383,9862,,,,,
405,9872,,,,,
369,9882,,,,,
380,9892,,,,,
336,9904,,,,,
342,9914,,,,,
315,9924,,,,,
328,9934,,,,,
305,9945,,,,,
326,9955,,,,,
311,9966,,,,,
326,9976,,,,,
315,9987,,,,,
324,9997,,,,,
320,10007,,,,,
327,10018,,,,,
338,10031,,,,,
322,10042,,,,,
347,10053,,,,,
326,10064,,,,,
337,10076,,,,,
329,10087,,,,,
330,10099,,,,,
340,10110,,,,,
326,10122,,,,,
341,10133,,,,,
332,10144,,,,,
356,10156,,,,,
341,10168,,,,,
332,10179,,,,,
336,10190,,,,,
320,10202,,,,,
341,10213,,,,,
321,10224,,,,,
339,10236,,,,,
321,10248,,,,,
385,10259,,,,,
572,10270,,,,,
412,10281,,,,,
243,10293,,,,,
268,10305,,,,,
322,10316,,,,,
324,10328,,,,,
327,10339,,,,,
345,10350,,,,,
330,10362,,,,,
352,10374,,,,,
335,10385,,,,,
354,10396,,,,,
350,10407,,,,,
353,10419,,,,,
370,10431,,,,,
357,10442,,,,,
386,10454,,,,,
378,10465,,,,,
393,10476,,,,,
388,10487,,,,,
382,10500,,,,,
381,10511,,,,,
346,10522,,,,,
347,10533,,,,,
312,10545,,,,,
317,10556,,,,,
308,10568,,,,,
301,10579,,,,,
318,10591,,,,,
300,10602,,,,,
324,10613,,,,,
304,10625,,,,,
322,10637,,,,,
320,10648,,,,,
318,10659,,,,,
332,10671,,,,,
313,10682,,,,,
334,10694,,,,,
316,10705,,,,,
331,10717,,,,,
323,10728,,,,,
319,10739,,,,,
335,10750,,,,,
317,10763,,,,,
348,10774,,,,,
329,10785,,,,,
338,10797,,,,,
325,10808,,,,,
316,10819,,,,,
329,10831,,,,,
311,10843,,,,,
333,10854,,,,,
314,10865,,,,,
328,10876,,,,,
467,10888,,,,,
523,10900,,,,,
297,10911,,,,,
223,10923,,,,,
305,10934,,,,,
311,10945,,,,,
330,10956,,,,,
330,10969,,,,,
328,10980,,,,,
348,10991,,,,,
331,11002,,,,,
353,11014,,,,,
338,11025,,,,,
356,11037,,,,,
359,11048,,,,,
357,11060,,,,,
385,11071,,,,,
375,11082,,,,,
398,11095,,,,,
384,11106,,,,,
394,11117,,,,,
387,11128,,,,,
363,11140,,,,,
363,11151,,,,,
325,11163,,,,,
334,11174,,,,,
309,11186,,,,,
319,11197,,,,,
318,11208,,,,,
310,11219,,,,,
331,11232,,,,,
311,11243,,,,,
334,11254,,,,,
318,11266,,,,,
328,11277,,,,,
331,11288,,,,,
321,11300,,,,,
339,11312,,,,,
318,11323,,,,,
338,11334,,,,,
320,11345,,,,,
331,11357,,,,,
330,11369,,,,,
319,11380,,,,,
345,11392,,,,,
330,11403,,,,,
351,11414,,,,,
327,11426,,,,,
329,11438,,,,,
327,11449,,,,,
316,11460,,,,,
336,11471,,,,,
315,11483,,,,,
334,11495,,,,,
336,11506,,,,,
502,11517,,,,,
499,11529,,,,,
238,11540,,,,,
259,11551,,,,,
295,11564,,,,,
332,11575,,,,,
320,11586,,,,,
330,11597,,,,,
341,11609,,,,,
330,11620,,,,,
356,11632,,,,,
333,11643,,,,,
358,11655,,,,,
343,11666,,,,,
354,11677,,,,,
366,11688,,,,,
363,11701,,,,,
392,11712,,,,,
375,11723,,,,,
395,11735,,,,,
379,11746,,,,,
376,11757,,,,,
367,11769,,,,,
333,11781,,,,,
339,11792,,,,,
305,11803,,,,,
321,11814,,,,,
305,11827,,,,,
310,11838,,,,,
315,11849,,,,,
303,11860,,,,,
330,11872,,,,,
306,11883,,,,,
327,11895,,,,,
314,11907,,,,,
319,11918,,,,,
326,11929,,,,,
313,11940,,,,,
337,11952,,,,,
314,11964,,,,,
331,11975,,,,,
319,11986,,,,,
322,11998,,,,,
333,12009,,,,,
312,12020,,,,,
339,12033,,,,,
324,12044,,,,,
347,12055,,,,,
335,12066,,,,,
326,12078,,,,,
331,12089,,,,,
309,12101,,,,,
337,12112,,,,,
315,12124,,,,,
335,12135,,,,,
313,12146,,,,,
383,12158,,,,,
543,12170,,,,,
387,12181,,,,,
228,12192,,,,,
266,12204,,,,,
327,12215,,,,,
320,12227,,,,,
323,12238,,,,,
342,12250,,,,,
326,12261,,,,,
354,12272,,,,,
332,12283,,,,,
351,12296,,,,,
342,12307,,,,,
349,12318,,,,,
364,12329,,,,,
354,12341,,,,,
386,12352,,,,,
367,12364,,,,,
386,12376,,,,,
378,12387,,,,,
374,12398,,,,,
382,12409,,,,,
346,12421,,,,,
351,12433,,,,,
312,12444,,,,,
319,12455,,,,,
306,12467,,,,,
306,12478,,,,,
323,12489,,,,,
305,12502,,,,,
332,12513,,,,,
308,12524,,,,,
325,12535,,,,,
315,12547,,,,,
318,12559,,,,,
334,12570,,,,,
312,12581,,,,,
335,12593,,,,,
315,12604,,,,,
327,12615,,,,,
322,12627,,,,,
318,12639,,,,,
337,12650,,,,,
315,12661,,,,,
335,12673,,,,,
322,12684,,,,,
343,12696,,,,,
339,12707,,,,,
327,12719,,,,,
339,12730,,,,,
311,12741,,,,,
338,12752,,,,,
312,12765,,,,,
330,12776,,,,,
312,12787,,,,,
334,12798,,,,,
510,12810,,,,,
482,12821,,,,,
273,12833,,,,,
240,12845,,,,,
314,12856,,,,,
309,12867,,,,,
317,12878,,,,,
338,12891,,,,,
318,12902,,,,,
345,12913,,,,,
324,12924,,,,,
341,12936,,,,,
340,12947,,,,,
338,12959,,,,,
363,12971,,,,,
349,12982,,,,,
379,12993,,,,,
367,13004,,,,,
384,13016,,,,,
381,13028,,,,,
373,13039,,,,,
389,13050,,,,,
354,13062,,,,,
361,13073,,,,,
326,13084,,,,,
328,13096,,,,,
323,13108,,,,,
317,13119,,,,,
336,13130,,,,,
314,13142,,,,,
336,13153,,,,,
320,13165,,,,,
329,13176,,,,,
331,13188,,,,,
326,13199,,,,,
345,13210,,,,,
321,13221,,,,,
343,13234,,,,,
321,13245,,,,,
331,13256,,,,,
334,13267,,,,,
325,13279,,,,,
345,13291,,,,,
323,13302,,,,,
344,13314,,,,,
323,13325,,,,,
346,13336,,,,,
352,13347,,,,,
338,13360,,,,,
350,13371,,,,,
321,13382,,,,,
340,13393,,,,,
323,13405,,,,,
333,13416,,,,,
332,13428,,,,,
313,13440,,,,,
439,13451,,,,,
566,13462,,,,,
401,13473,,,,,
234,13485,,,,,
295,13497,,,,,
327,13508,,,,,
316,13519,,,,,
339,13531,,,,,
320,13542,,,,,
345,13553,,,,,
331,13565,,,,,
342,13577,,,,,
349,13588,,,,,
339,13599,,,,,
367,13611,,,,,
348,13623,,,,,
375,13634,,,,,
364,13645,,,,,
377,13657,,,,,
384,13668,,,,,
372,13679,,,,,
392,13691,,,,,
359,13703,,,,,
363,13714,,,,,
330,13725,,,,,
325,13736,,,,,
323,13748,,,,,
307,13760,,,,,
329,13771,,,,,
307,13783,,,,,
327,13794,,,,,
310,13805,,,,,
320,13816,,,,,
328,13829,,,,,
317,13840,,,,,
340,13851,,,,,
317,13862,,,,,
336,13874,,,,,
320,13885,,,,,
325,13897,,,,,
331,13908,,,,,
317,13920,,,,,
342,13931,,,,,
317,13942,,,,,
336,13954,,,,,
330,13966,,,,,
339,13977,,,,,
346,13988,,,,,
321,14000,,,,,
338,14011,,,,,
313,14023,,,,,
333,14034,,,,,
321,14046,,,,,
323,14057,,,,,
324,14068,,,,,
379,14080,,,,,
582,14092,,,,,
418,14103,,,,,
228,14114,,,,,
266,14126,,,,,
313,14137,,,,,
329,14148,,,,,
315,14160,,,,,
346,14172,,,,,
324,14183,,,,,
344,14194,,,,,
337,14205,,,,,
341,14217,,,,,
357,14229,,,,,
342,14240,,,,,
373,14252,,,,,
354,14263,,,,,
379,14274,,,,,
373,14285,,,,,
381,14298,,,,,
392,14309,,,,,
370,14320,,,,,
384,14331,,,,,
347,14343,,,,,
346,14355,,,,,
322,14366,,,,,
314,14377,,,,,
322,14389,,,,,
300,14400,,,,,
328,14411,,,,,
306,14424,,,,,
326,14435,,,,,
319,14446,,,,,
316,14457,,,,,
333,14469,,,,,
314,14480,,,,,
339,14492,,,,,
317,14503,,,,,
328,14515,,,,,
323,14526,,,,,
321,14537,,,,,
335,14548,,,,,
318,14561,,,,,
351,14572,,,,,
330,14583,,,,,
336,14595,,,,,
319,14606,,,,,
315,14617,,,,,
330,14629,,,,,
309,14641,,,,,
334,14652,,,,,
309,14663,,,,,
331,14674,,,,,
489,14686,,,,,
539,14698,,,,,
280,14709,,,,,
221,14721,,,,,
309,14732,,,,,
309,14743,,,,,
327,14755,,,,,
324,14767,,,,,
323,14778,,,,,
345,14789,,,,,
325,14800,,,,,
355,14812,,,,,
335,14824,,,,,
354,14835,,,,,
354,14846,,,,,
354,14858,,,,,
379,14869,,,,,
364,14880,,,,,
392,14893,,,,,
372,14904,,,,,
384,14915,,,,,
373,14926,,,,,
358,14938,,,,,
358,14949,,,,,
316,14961,,,,,
328,14972,,,,,
302,14984,,,,,
312,14995,,,,,
311,15006,,,,,
306,15017,,,,,
326,15030,,,,,
307,15041,,,,,
332,15052,,,,,
314,15064,,,,,
327,15075,,,,,
326,15087,,,,,
316,15098,,,,,
333,15110,,,,,
314,15121,,,,,
337,15132,,,,,
317,15143,,,,,
335,15156,,,,,
338,15167,,,,,
329,15178,,,,,
338,15190,,,,,
308,15201,,,,,
329,15212,,,,,
313,15224,,,,,
323,15236,,,,,
325,15247,,,,,
309,15258,,,,,
400,15269,,,,,
562,15281,,,,,
434,15293,,,,,
206,15304,,,,,
270,15315,,,,,
318,15327,,,,,
311,15338,,,,,
337,15349,,,,,
318,15362,,,,,
342,15373,,,,,
327,15384,,,,,
339,15395,,,,,
344,15407,,,,,
339,15418,,,,,
366,15430,,,,,
346,15441,,,,,
376,15453,,,,,
366,15464,,,,,
379,15475,,,,,
385,15488,,,,,
371,15499,,,,,
390,15510,,,,,
360,15521,,,,,
366,15533,,,,,
329,15544,,,,,
323,15556,,,,,
320,15567,,,,,
304,15579,,,,,
328,15590,,,,,
305,15601,,,,,
328,15612,,,,,
314,15625,,,,,
321,15636,,,,,
328,15647,,,,,
317,15659,,,,,
341,15670,,,,,
318,15681,,,,,
337,15693,,,,,
320,15705,,,,,
328,15716,,,,,
339,15727,,,,,
329,15738,,,,,
351,15750,,,,,
319,15762,,,,,
329,15773,,,,,
312,15784,,,,,
317,15796,,,,,
328,15807,,,,,
312,15819,,,,,
326,15831,,,,,
348,15842,,,,,
558,15853,,,,,
464,15864,,,,,
225,15876,,,,,
265,15888,,,,,
301,15899,,,,,
331,15910,,,,,
311,15922,,,,,
334,15933,,,,,
324,15944,,,,,
332,15956,,,,,
344,15968,,,,,
334,15979,,,,,
359,15990,,,,,
340,16002,,,,,
364,16013,,,,,
356,16025,,,,,
368,16036,,,,,
383,16048,,,,,
369,16059,,,,,
394,16070,,,,,
365,16081,,,,,
377,16094,,,,,
350,16105,,,,,
334,16116,,,,,
330,16128,,,,,
305,16139,,,,,
324,16150,,,,,
301,16162,,,,,
323,16174,,,,,
312,16185,,,,,
314,16196,,,,,
329,16207,,,,,
312,16220,,,,,
337,16231,,,,,
315,16242,,,,,
332,16253,,,,,
322,16265,,,,,
321,16276,,,,,
337,16288,,,,,
325,16300,,,,,
351,16311,,,,,
323,16322,,,,,
329,16333,,,,,
316,16345,,,,,
314,16357,,,,,
327,16368,,,,,
309,16379,,,,,
329,16391,,,,,
300,16402,,,,,
454,16413,,,,,
562,16425,,,,,
321,16437,,,,,
241,16448,,,,,
284,16459,,,,,
330,16471,,,,,
311,16482,,,,,
332,16494,,,,,
327,16505,,,,,
327,16517,,,,,
345,16528,,,,,
327,16539,,,,,
356,16551,,,,,
340,16563,,,,,
359,16574,,,,,
356,16585,,,,,
360,16596,,,,,
381,16608,,,,,
365,16620,,,,,
392,16631,,,,,
370,16643,,,,,
379,16654,,,,,
361,16665,,,,,
339,16676,,,,,
339,16689,,,,,
307,16700,,,,,
326,16711,,,,,
305,16722,,,,,
318,16734,,,,,
316,16745,,,,,
311,16757,,,,,
329,16769,,,,,
313,16780,,,,,
335,16791,,,,,
316,16802,,,,,
329,16814,,,,,
327,16826,,,,,
320,16837,,,,,
334,16848,,,,,
322,16860,,,,,
353,16871,,,,,
334,16882,,,,,
336,16894,,,,,
323,16906,,,,,
313,16917,,,,,
333,16928,,,,,
310,16940,,,,,
335,16952,,,,,
307,16963,,,,,
340,16974,,,,,
523,16986,,,,,
512,16997,,,,,
269,17008,,,,,
247,17020,,,,,
321,17032,,,,,
310,17043,,,,,
324,17054,,,,,
328,17065,,,,,
323,17077,,,,,
345,17089,,,,,
322,17100,,,,,
351,17112,,,,,
336,17123,,,,,
350,17134,,,,,
353,17145,,,,,
351,17158,,,,,
380,17169,,,,,
361,17180,,,,,
389,17191,,,,,
371,17203,,,,,
377,17214,,,,,
370,17226,,,,,
345,17238,,,,,
348,17249,,,,,
314,17260,,,,,
329,17271,,,,,
307,17284,,,,,
316,17295,,,,,
318,17306,,,,,
310,17317,,,,,
334,17329,,,,,
309,17340,,,,,
332,17352,,,,,
318,17363,,,,,
327,17375,,,,,
329,17386,,,,,
317,17397,,,,,
341,17409,,,,,
317,17421,,,,,
336,17432,,,,,
329,17443,,,,,
343,17455,,,,,
345,17466,,,,,
321,17477,,,,,
336,17489,,,,,
311,17501,,,,,
332,17512,,,,,
315,17523,,,,,
323,17534,,,,,
316,17546,,,,,
357,17558,,,,,
576,17569,,,,,
474,17581,,,,,
252,17592,,,,,
263,17603,,,,,
310,17614,,,,,
319,17627,,,,,
311,17638,,,,,
338,17649,,,,,
316,17660,,,,,
342,17672,,,,,
327,17684,,,,,
339,17695,,,,,
349,17707,,,,,
337,17718,,,,,
368,17729,,,,,
348,17740,,,,,
378,17753,,,,,
369,17764,,,,,
377,17775,,,,,
383,17786,,,,,
365,17798,,,,,
381,17809,,,,,
341,17821,,,,,
345,17832,,,,,
319,17844,,,,,
314,17855,,,,,
319,17866,,,,,
302,17878,,,,,
327,17890,,,,,
307,17901,,,,,
327,17912,,,,,
316,17924,,,,,
320,17935,,,,,
330,17946,,,,,
314,17958,,,,,
337,17970,,,,,
314,17981,,,,,
332,17992,,,,,
319,18003,,,,,
323,18016,,,,,
335,18027,,,,,
312,18038,,,,,
347,18050,,,,,
331,18061,,,,,
346,18072,,,,,
323,18084,,,,,
319,18096,,,,,
329,18107,,,,,
311,18118,,,,,
334,18129,,,,,
314,18141,,,,,
320,18153,,,,,
355,18164,,,,,
558,18176,,,,,
507,18187,,,,,
229,18198,,,,,
280,18209,,,,,
302,18222,,,,,
324,18233,,,,,
317,18244,,,,,
319,18255,,,,,
339,18267,,,,,
322,18278,,,,,
349,18290,,,,,
329,18301,,,,,
350,18313,,,,,
346,18324,,,,,
350,18335,,,,,
370,18347,,,,,
357,18359,,,,,
389,18370,,,,,
367,18381,,,,,
384,18393,,,,,
373,18404,,,,,
368,18416,,,,,
367,18427,,,,,
328,18439,,,,,
339,18450,,,,,
307,18461,,,,,
319,18472,,,,,
311,18485,,,,,
308,18496,,,,,
326,18507,,,,,
304,18519,,,,,
330,18530,,,,,
312,18541,,,,,
329,18553,,,,,
322,18565,,,,,
319,18576,,,,,
335,18587,,,,,
312,18598,,,,,
337,18610,,,,,
315,18622,,,,,
330,18633,,,,,
325,18644,,,,,
323,18656,,,,,
337,18667,,,,,
319,18678,,,,,
352,18691,,,,,
335,18702,,,,,
342,18713,,,,,
326,18724,,,,,
318,18736,,,,,
336,18748,,,,,
313,18759,,,,,
339,18770,,,,,
314,18782,,,,,
321,18793,,,,,
471,18804,,,,,
583,18817,,,,,
331,18828,,,,,
219,18839,,,,,
307,18850,,,,,
310,18862,,,,,
324,18873,,,,,
327,18885,,,,,
324,18896,,,,,
349,18908,,,,,
329,18919,,,,,
354,18930,,,,,
337,18941,,,,,
354,18954,,,,,
357,18965,,,,,
357,18976,,,,,
383,18988,,,,,
366,18999,,,,,
397,19010,,,,,
379,19022,,,,,
386,19034,,,,,
381,19045,,,,,
364,19056,,,,,
368,19067,,,,,
324,19079,,,,,
335,19091,,,,,
307,19102,,,,,
313,19113,,,,,
313,19125,,,,,
307,19136,,,,,
327,19148,,,,,
307,19160,,,,,
334,19171,,,,,
318,19182,,,,,
329,19193,,,,,
329,19205,,,,,
319,19217,,,,,
340,19228,,,,,
316,19239,,,,,
340,19251,,,,,
320,19262,,,,,
329,19273,,,,,
330,19286,,,,,
320,19297,,,,,
341,19308,,,,,
314,19319,,,,,
345,19331,,,,,
335,19342,,,,,
342,19354,,,,,
334,19365,,,,,
314,19377,,,,,
337,19388,,,,,
312,19399,,,,,
335,19410,,,,,
320,19423,,,,,
318,19434,,,,,
364,19445,,,,,
542,19457,,,,,
496,19468,,,,,
217,19480,,,,,
270,19491,,,,,
304,19503,,,,,
321,19514,,,,,
328,19525,,,,,
318,19536,,,,,
344,19549,,,,,
325,19560,,,,,
351,19571,,,,,
337,19582,,,,,
347,19594,,,,,
356,19605,,,,,
349,19617,,,,,
379,19629,,,,,
362,19640,,,,,
388,19651,,,,,
377,19662,,,,,
384,19674,,,,,
389,19686,,,,,
366,19697,,,,,
376,19708,,,,,
333,19720,,,,,
334,19731,,,,,
310,19742,,,,,
311,19755,,,,,
317,19766,,,,,
302,19777,,,,,
327,19788,,,,,
305,19800,,,,,
325,19811,,,,,
315,19823,,,,,
321,19834,,,,,
330,19846,,,,,
314,19857,,,,,
339,19868,,,,,
314,19880,,,,,
333,19892,,,,,
318,19903,,,,,
321,19914,,,,,
331,19926,,,,,
314,19937,,,,,
337,19949,,,,,
312,19960,,,,,
331,19972,,,,,
320,19983,,,,,
326,19994,,,,,
332,20005,,,,,
318,20018,,,,,
353,20029,,,,,
330,20040,,,,,
340,20051,,,,,
321,20063,,,,,
319,20074,,,,,
333,20086,,,,,
316,20098,,,,,
341,20109,,,,,
309,20120,,,,,
341,20131,,,,,
507,20143,,,,,
533,20155,,,,,
278,20166,,,,,
241,20177,,,,,
321,20189,,,,,
310,20200,,,,,
331,20212,,,,,
325,20224,,,,,
328,20235,,,,,
343,20246,,,,,
327,20257,,,,,
356,20269,,,,,
335,20281,,,,,
355,20292,,,,,
352,20303,,,,,
356,20315,,,,,
378,20326,,,,,
366,20337,,,,,
395,20349,,,,,
375,20361,,,,,
389,20372,,,,,
375,20383,,,,,
363,20395,,,,,
358,20406,,,,,
323,20418,,,,,
333,20429,,,,,
304,20441,,,,,
319,20452,,,,,
310,20463,,,,,
308,20474,,,,,
328,20487,,,,,
307,20498,,,,,
332,20509,,,,,
312,20520,,,,,
328,20532,,,,,
323,20543,,,,,
318,20555,,,,,
337,20567,,,,,
314,20578,,,,,
339,20589,,,,,
317,20600,,,,,
329,20613,,,,,
326,20624,,,,,
320,20635,,,,,
335,20646,,,,,
315,20658,,,,,
340,20669,,,,,
319,20681,,,,,
333,20692,,,,,
328,20704,,,,,
324,20715,,,,,
338,20726,,,,,
321,20738,,,,,
357,20750,,,,,
336,20761,,,,,
341,20772,,,,,
329,20784,,,,,
321,20795,,,,,
339,20806,,,,,
315,20818,,,,,
340,20830,,,,,
311,20841,,,,,
354,20852,,,,,
537,20864,,,,,
514,20875,,,,,
271,20887,,,,,
250,20898,,,,,
323,20910,,,,,
315,20921,,,,,
328,20932,,,,,
331,20944,,,,,
327,20956,,,,,
350,20967,,,,,
329,20978,,,,,
356,20989,,,,,
339,21001,,,,,
354,21013,,,,,
358,21024,,,,,
355,21036,,,,,
382,21047,,,,,
366,21058,,,,,
395,21069,,,,,
378,21082,,,,,
384,21093,,,,,
382,21104,,,,,
359,21115,,,,,
363,21127,,,,,
322,21138,,,,,
332,21150,,,,,
307,21161,,,,,
315,21173,,,,,
318,21184,,,,,
308,21195,,,,,
331,21207,,,,,
308,21219,,,,,
331,21230,,,,,
319,21241,,,,,
324,21253,,,,,
329,21264,,,,,
319,21275,,,,,
340,21287,,,,,
317,21299,,,,,
337,21310,,,,,
319,21321,,,,,
326,21332,,,,,
331,21345,,,,,
317,21356,,,,,
340,21367,,,,,
317,21379,,,,,
336,21390,,,,,
321,21401,,,,,
327,21413,,,,,
333,21425,,,,,
322,21436,,,,,
347,21447,,,,,
320,21458,,,,,
349,21470,,,,,
343,21482,,,,,
343,21493,,,,,
340,21505,,,,,
321,21516,,,,,
341,21527,,,,,
320,21538,,,,,
340,21551,,,,,
324,21562,,,,,
316,21573,,,,,
430,21584,,,,,
585,21596,,,,,
421,21607,,,,,
225,21619,,,,,
296,21630,,,,,
313,21642,,,,,
322,21653,,,,,
333,21664,,,,,
321,21677,,,,,
348,21688,,,,,
329,21699,,,,,
349,21710,,,,,
341,21722,,,,,
347,21733,,,,,
360,21745,,,,,
349,21756,,,,,
381,21768,,,,,
367,21779,,,,,
391,21790,,,,,
385,21801,,,,,
388,21814,,,,,
394,21825,,,,,
368,21836,,,,,
373,21848,,,,,
333,21859,,,,,
335,21870,,,,,
313,21882,,,,,
309,21894,,,,,
319,21905,,,,,
299,21916,,,,,
323,21927,,,,,
303,21939,,,,,
323,21951,,,,,
314,21962,,,,,
316,21974,,,,,
331,21985,,,,,
315,21996,,,,,
338,22007,,,,,
315,22020,,,,,
330,22031,,,,,
323,22042,,,,,
321,22053,,,,,
332,22065,,,,,
315,22077,,,,,
339,22088,,,,,
317,22099,,,,,
332,22111,,,,,
329,22122,,,,,
324,22133,,,,,
341,22146,,,,,
330,22157,,,,,
355,22168,,,,,
323,22179,,,,,
330,22191,,,,,
322,22202,,,,,
319,22214,,,,,
336,22225,,,,,
317,22237,,,,,
330,22248,,,,,
341,22259,,,,,
545,22270,,,,,
506,22283,,,,,
239,22294,,,,,
265,22305,,,,,
295,22317,,,,,
331,22328,,,,,
314,22339,,,,,
333,22351,,,,,
331,22363,,,,,
330,22374,,,,,
349,22385,,,,,
333,22396,,,,,
358,22409,,,,,
344,22420,,,,,
363,22431,,,,,
365,22443,,,,,
369,22454,,,,,
395,22465,,,,,
380,22477,,,,,
405,22489,,,,,
384,22500,,,,,
390,22511,,,,,
371,22522,,,,,
343,22534,,,,,
338,22546,,,,,
301,22557,,,,,
320,22568,,,,,
299,22580,,,,,
306,22591,,,,,
307,22602,,,,,
302,22615,,,,,
322,22626,,,,,
303,22637,,,,,
328,22648,,,,,
310,22660,,,,,
324,22671,,,,,
322,22683,,,,,
318,22694,,,,,
334,22706,,,,,
313,22717,,,,,
334,22728,,,,,
314,22739,,,,,
322,22752,,,,,
323,22763,,,,,
315,22774,,,,,
338,22786,,,,,
312,22797,,,,,
334,22809,,,,,
327,22820,,,,,
339,22832,,,,,
335,22843,,,,,
317,22854,,,,,
332,22865,,,,,
312,22878,,,,,
332,22889,,,,,
316,22900,,,,,
322,22912,,,,,
317,22923,,,,,
441,22934,,,,,
590,22946,,,,,
334,22958,,,,,
245,22969,,,,,
285,22980,,,,,
318,22991,,,,,
324,23003,,,,,
317,23015,,,,,
341,23026,,,,,
319,23037,,,,,
344,23049,,,,,
334,23060,,,,,
345,23071,,,,,
351,23084,,,,,
344,23095,,,,,
373,23106,,,,,
356,23117,,,,,
386,23129,,,,,
378,23141,,,,,
392,23152,,,,,
396,23163,,,,,
376,23175,,,,,
386,23186,,,,,
344,23197,,,,,
342,23209,,,,,
314,23221,,,,,
313,23232,,,,,
315,23243,,,,,
300,23255,,,,,
321,23266,,,,,
299,23278,,,,,
321,23289,,,,,
307,23301,,,,,
318,23312,,,,,
323,23323,,,,,
310,23334,,,,,
333,23347,,,,,
310,23358,,,,,
329,23369,,,,,
317,23380,,,,,
320,23392,,,,,
327,23403,,,,,
313,23415,,,,,
336,23427,,,,,
311,23438,,,,,
332,23449,,,,,
322,23460,,,,,
322,23472,,,,,
336,23484,,,,,
333,23495,,,,,
353,23506,,,,,
320,23518,,,,,
331,23529,,,,,
318,23541,,,,,
323,23553,,,,,
334,23564,,,,,
317,23575,,,,,
331,23586,,,,,
342,23598,,,,,
544,23610,,,,,
511,23621,,,,,
262,23632,,,,,
270,23644,,,,,
300,23655,,,,,
333,23666,,,,,
312,23678,,,,,
334,23690,,,,,
327,23701,,,,,
332,23712,,,,,
345,23724,,,,,
331,23735,,,,,
358,23747,,,,,
341,23758,,,,,
362,23770,,,,,
357,23781,,,,,
367,23792,,,,,
387,23803,,,,,
374,23816,,,,,
401,23827,,,,,
379,23838,,,,,
386,23849,,,,,
361,23861,,,,,
341,23873,,,,,
336,23884,,,,,
308,23896,,,,,
327,23907,,,,,
304,23918,,,,,
320,23929,,,,,
310,23942,,,,,
312,23953,,,,,
326,23964,,,,,
308,23975,,,,,
333,23987,,,,,
312,23998,,,,,
328,24010,,,,,
320,24022,,,,,
321,24033,,,,,
335,24044,,,,,
314,24055,,,,,
340,24067,,,,,
318,24079,,,,,
333,24090,,,,,
326,24101,,,,,
323,24113,,,,,
339,24124,,,,,
316,24135,,,,,
352,24147,,,,,
338,24159,,,,,
346,24170,,,,,
330,24181,,,,,
321,24193,,,,,
335,24204,,,,,
317,24216,,,,,
341,24227,,,,,
321,24239,,,,,
320,24250,,,,,
404,24261,,,,,
581,24273,,,,,
459,24285,,,,,
236,24296,,,,,
299,24307,,,,,
308,24318,,,,,
324,24330,,,,,
325,24342,,,,,
323,24353,,,,,
343,24365,,,,,
325,24376,,,,,
350,24387,,,,,
335,24398,,,,,
350,24411,,,,,
351,24422,,,,,
351,24433,,,,,
375,24444,,,,,
361,24456,,,,,
391,24467,,,,,
378,24479,,,,,
391,24491,,,,,
386,24502,,,,,
369,24513,,,,,
370,24524,,,,,
328,24536,,,,,
335,24548,,,,,
308,24559,,,,,
316,24570,,,,,
315,24582,,,,,
307,24593,,,,,
326,24605,,,,,
306,24616,,,,,
329,24628,,,,,
312,24639,,,,,
323,24650,,,,,
326,24662,,,,,
317,24674,,,,,
338,24685,,,,,
315,24696,,,,,
335,24708,,,,,
317,24719,,,,,
326,24730,,,,,
328,24742,,,,,
317,24754,,,,,
339,24765,,,,,
318,24776,,,,,
339,24787,,,,,
316,24799,,,,,
335,24811,,,,,
347,24822,,,,,
333,24834,,,,,
341,24845,,,,,
315,24856,,,,,
333,24867,,,,,
317,24880,,,,,
324,24891,,,,,
329,24902,,,,,
305,24913,,,,,
399,24925,,,,,
566,24936,,,,,
469,24948,,,,,
231,24960,,,,,
273,24971,,,,,
313,24982,,,,,
308,24993,,,,,
334,25006,,,,,
316,25017,,,,,
336,25028,,,,,
327,25039,,,,,
337,25051,,,,,
344,25062,,,,,
333,25074,,,,,
361,25085,,,,,
345,25097,,,,,
371,25108,,,,,
367,25119,,,,,
382,25131,,,,,
392,25143,,,,,
380,25154,,,,,
399,25165,,,,,
367,25177,,,,,
369,25188,,,,,
337,25199,,,,,
323,25211,,,,,
322,25223,,,,,
302,25234,,,,,
321,25245,,,,,
299,25256,,,,,
320,25268,,,,,
310,25280,,,,,
315,25291,,,,,
324,25303,,,,,
309,25314,,,,,
334,25325,,,,,
313,25337,,,,,
331,25349,,,,,
319,25360,,,,,
323,25371,,,,,
331,25382,,,,,
314,25394,,,,,
339,25406,,,,,
315,25417,,,,,
335,25428,,,,,
319,25440,,,,,
328,25451,,,,,
347,25462,,,,,
330,25475,,,,,
344,25486,,,,,
313,25497,,,,,
327,25508,,,,,
318,25520,,,,,
320,25531,,,,,
334,25543,,,,,
310,25554,,,,,
349,25566,,,,,
505,25577,,,,,
538,25588,,,,,
258,25600,,,,,
245,25612,,,,,
309,25623,,,,,
309,25634,,,,,
336,25646,,,,,
317,25657,,,,,
336,25668,,,,,
331,25680,,,,,
336,25692,,,,,
352,25703,,,,,
336,25714,,,,,
364,25725,,,,,
349,25738,,,,,
372,25749,,,,,
372,25760,,,,,
379,25772,,,,,
401,25783,,,,,
385,25794,,,,,
405,25806,,,,,
377,25818,,,,,
378,25829,,,,,
349,25840,,,,,
327,25851,,,,,
328,25863,,,,,
301,25875,,,,,
320,25886,,,,,
299,25897,,,,,
313,25909,,,,,
309,25920,,,,,
307,25931,,,,,
327,25944,,,,,
308,25955,,,,,
334,25966,,,,,
314,25977,,,,,
328,25989,,,,,
324,26000,,,,,
320,26012,,,,,
333,26023,,,,,
315,26035,,,,,
337,26046,,,,,
318,26057,,,,,
326,26070,,,,,
330,26081,,,,,
335,26092,,,,,
349,26103,,,,,
318,26115,,,,,
333,26126,,,,,
312,26138,,,,,
324,26149,,,,,
320,26161,,,,,
317,26172,,,,,
328,26183,,,,,
345,26194,,,,,
553,26207,,,,,
484,26218,,,,,
246,26229,,,,,
259,26241,,,,,
300,26252,,,,,
327,26263,,,,,
312,26275,,,,,
337,26287,,,,,
322,26298,,,,,
335,26309,,,,,
337,26320,,,,,
332,26332,,,,,
356,26344,,,,,
337,26355,,,,,
364,26366,,,,,
354,26378,,,,,
372,26389,,,,,
380,26400,,,,,
377,26413,,,,,
397,26424,,,,,
375,26435,,,,,
388,26446,,,,,
355,26458,,,,,
343,26470,,,,,
327,26481,,,,,
307,26492,,,,,
323,26504,,,,,
299,26515,,,,,
320,26526,,,,,
305,26539,,,,,
316,26550,,,,,
321,26561,,,,,
311,26572,,,,,
333,26584,,,,,
310,26595,,,,,
331,26607,,,,,
317,26618,,,,,
326,26630,,,,,
328,26641,,,,,
316,26652,,,,,
334,26663,,,,,
313,26676,,,,,
336,26687,,,,,
320,26698,,,,,
323,26710,,,,,
339,26721,,,,,
334,26732,,,,,
351,26744,,,,,
318,26756,,,,,
332,26767,,,,,
316,26778,,,,,
324,26789,,,,,
331,26802,,,,,
317,26813,,,,,
327,26824,,,,,
368,26835,,,,,
578,26847,,,,,
463,26858,,,,,
244,26870,,,,,
280,26882,,,,,
305,26893,,,,,
333,26904,,,,,
314,26915,,,,,
334,26927,,,,,
325,26939,,,,,
333,26950,,,,,
344,26961,,,,,
333,26973,,,,,
358,26984,,,,,
339,26995,,,,,
363,27008,,,,,
357,27019,,,,,
369,27030,,,,,
387,27041,,,,,
373,27053,,,,,
396,27064,,,,,
371,27076,,,,,
381,27087,,,,,
352,27099,,,,,
337,27110,,,,,
332,27121,,,,,
306,27132,,,,,
324,27145,,,,,
301,27156,,,,,
319,27167,,,,,
309,27179,,,,,
310,27190,,,,,
325,27202,,,,,
310,27213,,,,,
334,27225,,,,,
311,27236,,,,,
329,27247,,,,,
320,27258,,,,,
320,27271,,,,,
331,27282,,,,,
315,27293,,,,,
336,27304,,,,,
317,27316,,,,,
334,27327,,,,,
319,27339,,,,,
329,27351,,,,,
350,27362,,,,,
328,27373,,,,,
341,27384,,,,,
315,27396,,,,,
327,27408,,,,,
321,27419,,,,,
321,27430,,,,,
334,27442,,,,,
308,27453,,,,,
361,27464,,,,,
524,27476,,,,,
540,27488,,,,,
265,27499,,,,,
257,27510,,,,,
318,27522,,,,,
305,27534,,,,,
334,27545,,,,,
316,27556,,,,,
334,27568,,,,,
331,27579,,,,,
331,27590,,,,,
349,27602,,,,,
331,27614,,,,,
360,27625,,,,,
347,27636,,,,,
366,27648,,,,,
367,27659,,,,,
373,27671,,,,,
394,27682,,,,,
375,27694,,,,,
395,27705,,,,,
368,27716,,,,,
367,27727,,,,,
345,27740,,,,,
321,27751,,,,,
325,27762,,,,,
301,27773,,,,,
322,27785,,,,,
303,27796,,,,,
316,27808,,,,,
314,27820,,,,,
310,27831,,,,,
330,27842,,,,,
309,27853,,,,,
333,27865,,,,,
313,27877,,,,,
327,27888,,,,,
323,27899,,,,,
315,27911,,,,,
333,27922,,,,,
313,27934,,,,,
339,27945,,,,,
317,27957,,,,,
326,27968,,,,,
336,27979,,,,,
334,27991,,,,,
349,28003,,,,,
315,28014,,,,,
332,28025,,,,,
317,28037,,,,,
327,28048,,,,,
326,28059,,,,,
319,28071,,,,,
327,28083,,,,,
385,28094,,,,,
598,28105,,,,,
429,28116,,,,,
230,28128,,,,,
276,28140,,,,,
304,28151,,,,,
330,28163,,,,,
312,28174,,,,,
336,28185,,,,,
325,28196,,,,,
339,28209,,,,,
344,28220,,,,,
335,28231,,,,,
360,28242,,,,,
345,28254,,,,,
368,28266,,,,,
360,28277,,,,,
378,28289,,,,,
387,28300,,,,,
383,28311,,,,,
404,28322,,,,,
377,28335,,,,,
387,28346,,,,,
353,28357,,,,,
342,28368,,,,,
328,28380,,,,,
305,28391,,,,,
323,28403,,,,,
299,28414,,,,,
321,28426,,,,,
307,28437,,,,,
315,28448,,,,,
323,28460,,,,,
311,28472,,,,,
333,28483,,,,,
313,28494,,,,,
334,28506,,,,,
320,28517,,,,,
325,28528,,,,,
329,28540,,,,,
317,28552,,,,,
336,28563,,,,,
315,28574,,,,,
341,28585,,,,,
330,28597,,,,,
335,28609,,,,,
332,28620,,,,,
310,28632,,,,,
332,28643,,,,,
310,28654,,,,,
330,28666,,,,,
319,28678,,,,,
313,28689,,,,,
372,28700,,,,,
548,28711,,,,,
479,28723,,,,,
213,28735,,,,,
270,28746,,,,,
305,28758,,,,,
320,28769,,,,,
334,28780,,,,,
322,28791,,,,,
346,28804,,,,,
329,28815,,,,,
349,28826,,,,,
340,28837,,,,,
343,28849,,,,,
360,28860,,,,,
351,28872,,,,,
380,28883,,,,,
367,28895,,,,,
391,28906,,,,,
386,28917,,,,,
386,28929,,,,,
395,28941,,,,,
369,28952,,,,,
374,28963,,,,,
331,28975,,,,,
331,28986,,,,,
312,28998,,,,,
306,29009,,,,,
315,29021,,,,,
297,29032,,,,,
323,29043,,,,,
305,29054,,,,,
326,29067,,,,,
317,29078,,,,,
320,29089,,,,,
332,29101,,,,,
313,29112,,,,,
335,29123,,,,,
317,29135,,,,,
334,29147,,,,,
324,29158,,,,,
322,29169,,,,,
334,29180,,,,,
322,29192,,,,,
351,29204,,,,,
326,29215,,,,,
333,29227,,,,,
320,29238,,,,,
315,29249,,,,,
331,29260,,,,,
311,29273,,,,,
334,29284,,,,,
307,29295,,,,,
367,29306,,,,,
541,29318,,,,,
465,29329,,,,,
239,29341,,,,,
248,29352,,,,,
323,29364,,,,,
310,29375,,,,,
326,29386,,,,,
325,29399,,,,,
325,29410,,,,,
344,29421,,,,,
326,29432,,,,,
353,29444,,,,,
336,29455,,,,,
354,29467,,,,,
354,29478,,,,,
359,29490,,,,,
382,29501,,,,,
369,29512,,,,,
399,29523,,,,,
377,29536,,,,,
387,29547,,,,,
374,29558,,,,,
352,29570,,,,,
350,29581,,,,,
314,29592,,,,,
327,29604,,,,,
305,29616,,,,,
315,29627,,,,,
311,29638,,,,,
306,29649,,,,,
326,29661,,,,,
307,29673,,,,,
329,29684,,,,,
314,29696,,,,,
323,29707,,,,,
323,29718,,,,,
316,29730,,,,,
335,29742,,,,,
313,29753,,,,,
336,29764,,,,,
320,29775,,,,,
326,29787,,,,,
328,29799,,,,,
331,29810,,,,,
351,29821,,,,,
324,29833,,,,,
338,29844,,,,,
314,29855,,,,,
325,29868,,,,,
326,29879,,,,,
316,29890,,,,,
335,29901,,,,,
303,29913,,,,,
435,29924,,,,,
575,29936,,,,,
382,29947,,,,,
237,29959,,,,,
281,29970,,,,,
326,29981,,,,,
308,29992,,,,,
333,30005,,,,,
321,30016,,,,,
332,30027,,,,,
338,30039,,,,,
329,30050,,,,,
352,30061,,,,,
335,30073,,,,,
363,30085,,,,,
353,30096,,,,,
365,30107,,,,,
374,30118,,,,,
372,30131,,,,,
395,30142,,,,,
372,30153,,,,,
390,30164,,,,,
362,30176,,,,,
352,30187,,,,,
336,30199,,,,,
311,30211,,,,,
327,30222,,,,,
301,30233,,,,,
323,30244,,,,,
309,30256,,,,,
316,30268,,,,,
323,30279,,,,,
311,30290,,,,,
334,30302,,,,,
314,30313,,,,,
332,30324,,,,,
319,30337,,,,,
325,30348,,,,,
329,30359,,,,,
315,30370,,,,,
337,30382,,,,,
315,30393,,,,,
335,30405,,,,,
321,30416,,,,,
324,30428,,,,,
343,30439,,,,,
331,30450,,,,,
351,30462,,,,,
318,30474,,,,,
329,30485,,,,,
318,30496,,,,,
323,30508,,,,,
331,30519,,,,,
316,30531,,,,,
326,30542,,,,,
358,30554,,,,,
561,30565,,,,,
476,30576,,,,,
244,30587,,,,,
278,30600,,,,,
303,30611,,,,,
331,30622,,,,,
312,30633,,,,,
333,30645,,,,,
327,30656,,,,,
330,30668,,,,,
344,30680,,,,,
331,30691,,,,,
357,30702,,,,,
340,30713,,,,,
360,30725,,,,,
359,30737,,,,,
366,30748,,,,,
384,30759,,,,,
370,30771,,,,,
394,30782,,,,,
371,30793,,,,,
379,30806,,,,,
354,30817,,,,,
336,30828,,,,,
332,30839,,,,,
307,30851,,,,,
324,30863,,,,,
303,30874,,,,,
319,30885,,,,,
315,30897,,,,,
315,30908,,,,,
329,30919,,,,,
312,30931,,,,,
336,30943,,,,,
315,30954,,,,,
329,30965,,,,,
322,30977,,,,,
320,30988,,,,,
336,31000,,,,,
317,31011,,,,,
339,31023,,,,,
317,31034,,,,,
333,31045,,,,,
324,31056,,,,,
322,31069,,,,,
349,31080,,,,,
331,31091,,,,,
350,31102,,,,,
319,31114,,,,,
329,31125,,,,,
322,31137,,,,,
319,31149,,,,,
334,31160,,,,,
314,31171,,,,,
325,31182,,,,,
398,31195,,,,,
581,31206,,,,,
413,31217,,,,,
232,31228,,,,,
294,31240,,,,,
304,31251,,,,,
332,31263,,,,,
316,31275,,,,,
331,31286,,,,,
329,31297,,,,,
328,31308,,,,,
348,31320,,,,,
329,31332,,,,,
357,31343,,,,,
343,31354,,,,,
359,31366,,,,,
363,31377,,,,,
364,31388,,,,,
388,31400,,,,,
369,31412,,,,,
393,31423,,,,,
368,31434,,,,,
373,31446,,,,,
354,31457,,,,,
330,31469,,,,,
334,31480,,,,,
305,31492,,,,,
321,31503,,,,,
305,31514,,,,,
316,31525,,,,,
315,31538,,,,,
309,31549,,,,,
329,31560,,,,,
309,31571,,,,,
331,31583,,,,,
314,31595,,,,,
325,31606,,,,,
326,31618,,,,,
317,31629,,,,,
337,31640,,,,,
314,31651,,,,,
337,31664,,,,,
316,31675,,,,,
331,31686,,,,,
342,31697,,,,,
333,31709,,,,,
345,31720,,,,,
315,31732,,,,,
331,31744,,,,,
315,31755,,,,,
323,31766,,,,,
327,31777,,,,,
313,31789,,,,,
333,31801,,,,,
463,31812,,,,,
585,31823,,,,,
309,31835,,,,,
246,31846,,,,,
304,31857,,,,,
309,31869,,,,,
332,31881,,,,,
312,31892,,,,,
339,31903,,,,,
325,31915,,,,,
336,31927,,,,,
343,31938,,,,,
334,31949,,,,,
361,31961,,,,,
342,31972,,,,,
369,31983,,,,,
364,31995,,,,,
375,32007,,,,,
383,32018,,,,,
376,32029,,,,,
394,32040,,,,,
366,32052,,,,,
372,32064,,,,,
342,32075,,,,,
331,32087,,,,,
322,32098,,,,,
305,32109,,,,,
324,32120,,,,,
301,32133,,,,,
323,32144,,,,,
310,32155,,,,,
317,32166,,,,,
324,32178,,,,,
312,32189,,,,,
336,32201,,,,,
312,32212,,,,,
330,32224,,,,,
319,32235,,,,,
322,32246,,,,,
330,32258,,,,,
320,32270,,,,,
351,32281,,,,,
329,32292,,,,,
339,32304,,,,,
317,32315,,,,,
317,32327,,,,,
326,32338,,,,,
309,32350,,,,,
333,32361,,,,,
311,32372,,,,,
318,32384,,,,,
442,32396,,,,,
576,32407,,,,,
336,32418,,,,,
221,32430,,,,,
307,32441,,,,,
307,32452,,,,,
327,32464,,,,,
318,32476,,,,,
324,32487,,,,,
337,32498,,,,,
325,32509,,,,,
351,32521,,,,,
336,32533,,,,,
356,32544,,,,,
348,32556,,,,,
359,32567,,,,,
377,32578,,,,,
367,32589,,,,,
395,32602,,,,,
374,32613,,,,,
390,32624,,,,,
377,32635,,,,,
363,32647,,,,,
356,32659,,,,,
319,32670,,,,,
331,32681,,,,,
303,32693,,,,,
316,32704,,,,,
308,32715,,,,,
310,32728,,,,,
323,32739,,,,,
304,32750,,,,,
332,32761,,,,,
310,32773,,,,,
326,32784,,,,,
319,32796,,,,,
322,32807,,,,,
337,32819,,,,,
314,32830,,,,,
341,32841,,,,,
324,32852,,,,,
341,32865,,,,,
328,32876,,,,,
320,32887,,,,,
329,32899,,,,,
311,32910,,,,,
334,32921,,,,,
313,32933,,,,,
329,32945,,,,,
309,32956,,,,,
397,32967,,,,,
598,32978,,,,,
390,32990,,,,,
225,33002,,,,,
265,33013,,,,,
319,33025,,,,,
321,33036,,,,,
321,33047,,,,,
339,33059,,,,,
323,33071,,,,,
349,33082,,,,,
332,33093,,,,,
350,33104,,,,,
349,33116,,,,,
351,33128,,,,,
372,33139,,,,,
357,33150,,,,,
389,33162,,,,,
378,33173,,,,,
393,33184,,,,,
388,33197,,,,,
376,33208,,,,,
383,33219,,,,,
345,33230,,,,,
350,33242,,,,,
315,33253,,,,,
316,33265,,,,,
309,33276,,,,,
303,33288,,,,,
320,33299,,,,,
303,33310,,,,,
329,33321,,,,,
313,33334,,,,,
326,33345,,,,,
326,33356,,,,,
318,33368,,,,,
336,33379,,,,,
316,33391,,,,,
338,33402,,,,,
322,33414,,,,,
337,33425,,,,,
340,33436,,,,,
326,33447,,,,,
334,33460,,,,,
306,33471,,,,,
328,33482,,,,,
315,33494,,,,,
322,33505,,,,,
320,33516,,,,,
303,33528,,,,,
412,33540,,,,,
563,33551,,,,,
395,33562,,,,,
200,33573,,,,,
275,33585,,,,,
316,33597,,,,,
313,33608,,,,,
333,33619,,,,,
318,33631,,,,,
342,33642,,,,,
330,33653,,,,,
340,33666,,,,,
347,33677,,,,,
339,33688,,,,,
366,33699,,,,,
350,33711,,,,,
379,33722,,,,,
370,33734,,,,,
384,33745,,,,,
392,33757,,,,,
380,33768,,,,,
394,33779,,,,,
361,33792,,,,,
363,33803,,,,,
327,33814,,,,,
322,33825,,,,,
317,33837,,,,,
299,33848,,,,,
319,33860,,,,,
298,33871,,,,,
321,33883,,,,,
311,33894,,,,,
319,33905,,,,,
327,33916,,,,,
315,33929,,,,,
335,33940,,,,,
314,33951,,,,,
336,33963,,,,,
320,33974,,,,,
329,33985,,,,,
339,33997,,,,,
327,34009,,,,,
342,34020,,,,,
310,34031,,,,,
325,34042,,,,,
314,34054,,,,,
318,34066,,,,,
326,34077,,,,,
311,34088,,,,,
323,34100,,,,,
393,34111,,,,,
568,34123,,,,,
364,34135,,,,,
208,34146,,,,,
285,34157,,,,,
307,34168,,,,,
332,34180,,,,,
314,34192,,,,,
335,34203,,,,,
327,34214,,,,,
334,34226,,,,,
345,34237,,,,,
334,34248,,,,,
363,34260,,,,,
347,34272,,,,,
371,34283,,,,,
366,34294,,,,,
375,34306,,,,,
394,34317,,,,,
380,34329,,,,,
400,34340,,,,,
373,34352,,,,,
379,34363,,,,,
348,34374,,,,,
330,34385,,,,,
328,34398,,,,,
305,34409,,,,,
323,34420,,,,,
302,34432,,,,,
319,34443,,,,,
312,34454,,,,,
314,34466,,,,,
327,34478,,,,,
312,34489,,,,,
334,34500,,,,,
314,34511,,,,,
331,34524,,,,,
321,34535,,,,,
323,34546,,,,,
333,34557,,,,,
320,34569,,,,,
349,34580,,,,,
328,34592,,,,,
337,34604,,,,,
320,34615,,,,,
313,34626,,,,,
327,34637,,,,,
309,34649,,,,,
333,34661,,,,,
311,34672,,,,,
312,34683,,,,,
395,34695,,,,,
563,34706,,,,,
413,34717,,,,,
217,34729,,,,,
292,34741,,,,,
305,34752,,,,,
324,34763,,,,,
321,34775,,,,,
323,34786,,,,,
339,34798,,,,,
324,34809,,,,,
351,34821,,,,,
334,34832,,,,,
350,34843,,,,,
349,34855,,,,,
351,34867,,,,,
375,34878,,,,,
364,34889,,,,,
395,34900,,,,,
377,34912,,,,,
391,34924,,,,,
380,34935,,,,,
365,34947,,,,,
362,34958,,,,,
323,34969,,,,,
332,34980,,,,,
305,34993,,,,,
316,35004,,,,,
311,35015,,,,,
308,35026,,,,,
325,35038,,,,,
305,35049,,,,,
328,35061,,,,,
308,35073,,,,,
323,35084,,,,,
320,35095,,,,,
315,35106,,,,,
331,35118,,,,,
312,35130,,,,,
335,35141,,,,,
316,35152,,,,,
327,35164,,,,,
322,35175,,,,,
326,35186,,,,,
349,35198,,,,,
326,35210,,,,,
339,35221,,,,,
313,35232,,,,,
322,35244,,,,,
322,35256,,,,,
314,35267,,,,,
335,35278,,,,,
309,35290,,,,,
335,35301,,,,,
477,35312,,,,,
557,35324,,,,,
298,35336,,,,,
244,35347,,,,,
315,35358,,,,,
307,35369,,,,,
333,35381,,,,,
318,35393,,,,,
331,35404,,,,,
335,35416,,,,,
329,35427,,,,,
350,35438,,,,,
331,35449,,,,,
360,35462,,,,,
348,35473,,,,,
364,35484,,,,,
371,35495,,,,,
369,35507,,,,,
395,35518,,,,,
375,35530,,,,,
395,35542,,,,,
372,35553,,,,,
367,35564,,,,,
348,35575,,,,,
321,35588,,,,,
329,35599,,,,,
304,35610,,,,,
324,35621,,,,,
307,35633,,,,,
317,35644,,,,,
320,35656,,,,,
310,35667,,,,,
331,35679,,,,,
309,35690,,,,,
330,35701,,,,,
314,35713,,,,,
322,35725,,,,,
327,35736,,,,,
313,35747,,,,,
336,35759,,,,,
312,35770,,,,,
333,35781,,,,,
317,35793,,,,,
323,35805,,,,,
327,35816,,,,,
315,35827,,,,,
339,35838,,,,,
312,35850,,,,,
343,35862,,,,,
336,35873,,,,,
337,35885,,,,,
333,35896,,,,,
315,35907,,,,,
335,35918,,,,,
314,35931,,,,,
334,35942,,,,,
322,35953,,,,,
317,35964,,,,,
350,35976,,,,,
513,35988,,,,,
540,35999,,,,,
254,36011,,,,,
271,36022,,,,,
306,36033,,,,,
319,36044,,,,,
330,36057,,,,,
318,36068,,,,,
342,36079,,,,,
323,36090,,,,,
345,36102,,,,,
336,36113,,,,,
342,36125,,,,,
355,36136,,,,,
345,36148,,,,,
374,36159,,,,,
359,36170,,,,,
384,36182,,,,,
379,36194,,,,,
385,36205,,,,,
391,36216,,,,,
368,36228,,,,,
378,36239,,,,,
336,36250,,,,,
337,36262,,,,,
313,36274,,,,,
311,36285,,,,,
323,36296,,,,,
305,36307,,,,,
329,36320,,,,,
308,36331,,,,,
327,36342,,,,,
315,36354,,,,,
316,36365,,,,,
328,36376,,,,,
312,36388,,,,,
335,36400,,,,,
314,36411,,,,,
332,36422,,,,,
323,36433,,,,,
322,36445,,,,,
332,36457,,,,,
316,36468,,,,,
339,36480,,,,,
318,36491,,,,,
331,36502,,,,,
325,36513,,,,,
326,36526,,,,,
342,36537,,,,,
319,36548,,,,,
344,36559,,,,,
335,36571,,,,,
353,36582,,,,,
335,36594,,,,,
326,36605,,,,,
337,36617,,,,,
316,36628,,,,,
339,36639,,,,,
319,36651,,,,,
335,36663,,,,,
311,36674,,,,,
408,36685,,,,,
598,36697,,,,,
408,36708,,,,,
253,36720,,,,,
278,36731,,,,,
323,36743,,,,,
319,36754,,,,,
320,36765,,,,,
338,36776,,,,,
322,36789,,,,,
349,36800,,,,,
332,36811,,,,,
349,36823,,,,,
347,36834,,,,,
347,36845,,,,,
369,36857,,,,,
353,36869,,,,,
385,36880,,,,,
373,36891,,,,,
392,36902,,,,,
386,36914,,,,,
379,36926,,,,,
385,36937,,,,,
350,36948,,,,,
355,36960,,,,,
318,36971,,,,,
323,36982,,,,,
315,36995,,,,,
309,37006,,,,,
326,37017,,,,,
305,37028,,,,,
331,37040,,,,,
311,37052,,,,,
324,37063,,,,,
323,37074,,,,,
316,37086,,,,,
334,37097,,,,,
315,37108,,,,,
338,37121,,,,,
318,37132,,,,,
330,37143,,,,,
327,37154,,,,,
319,37166,,,,,
337,37177,,,,,
316,37189,,,,,
338,37200,,,,,
322,37212,,,,,
331,37223,,,,,
330,37234,,,,,
325,37245,,,,,
341,37258,,,,,
320,37269,,,,,
353,37280,,,,,
339,37292,,,,,
343,37303,,,,,
333,37314,,,,,
320,37326,,,,,
340,37338,,,,,
319,37349,,,,,
339,37360,,,,,
321,37371,,,,,
319,37383,,,,,
394,37395,,,,,
571,37406,,,,,
461,37417,,,,,
224,37429,,,,,
289,37440,,,,,
308,37452,,,,,
323,37464,,,,,
331,37475,,,,,
323,37486,,,,,
348,37497,,,,,
327,37509,,,,,
351,37521,,,,,
337,37532,,,,,
351,37543,,,,,
357,37555,,,,,
354,37566,,,,,
381,37577,,,,,
365,37590,,,,,
393,37601,,,,,
383,37612,,,,,
391,37623,,,,,
393,37635,,,,,
372,37646,,,,,
377,37658,,,,,
335,37669,,,,,
338,37681,,,,,
313,37692,,,,,
313,37703,,,,,
315,37714,,,,,
305,37727,,,,,
327,37738,,,,,
305,37749,,,,,
325,37761,,,,,
312,37772,,,,,
320,37784,,,,,
327,37795,,,,,
315,37807,,,,,
337,37818,,,,,
314,37829,,,,,
333,37840,,,,,
318,37853,,,,,
323,37864,,,,,
328,37875,,,,,
318,37886,,,,,
340,37898,,,,,
317,37909,,,,,
339,37921,,,,,
322,37933,,,,,
332,37944,,,,,
347,37955,,,,,
330,37966,,,,,
344,37978,,,,,
313,37990,,,,,
333,38001,,,,,
322,38012,,,,,
325,38024,,,,,
333,38035,,,,,
313,38046,,,,,
355,38059,,,,,
512,38070,,,,,
532,38081,,,,,
243,38092,,,,,
243,38104,,,,,
310,38115,,,,,
312,38127,,,,,
337,38138,,,,,
317,38150,,,,,
340,38161,,,,,
334,38172,,,,,
338,38184,,,,,
350,38196,,,,,
337,38207,,,,,
365,38218,,,,,
349,38230,,,,,
374,38241,,,,,
371,38253,,,,,
382,38264,,,,,
401,38276,,,,,
386,38287,,,,,
407,38298,,,,,
379,38309,,,,,
379,38322,,,,,
348,38333,,,,,
327,38344,,,,,
324,38355,,,,,
299,38367,,,,,
319,38378,,,,,
298,38390,,,,,
314,38402,,,,,
305,38413,,,,,
310,38424,,,,,
325,38435,,,,,
311,38447,,,,,
335,38459,,,,,
313,38470,,,,,
330,38481,,,,,
322,38493,,,,,
321,38504,,,,,
332,38516,,,,,
311,38528,,,,,
336,38539,,,,,
316,38550,,,,,
328,38561,,,,,
325,38573,,,,,
333,38585,,,,,
347,38596,,,,,
317,38607,,,,,
333,38619,,,,,
310,38630,,,,,
325,38641,,,,,
320,38653,,,,,
317,38665,,,,,
332,38676,,,,,
311,38687,,,,,
463,38699,,,,,
554,38710,,,,,
327,38722,,,,,
221,38733,,,,,
283,38745,,,,,
327,38756,,,,,
312,38767,,,,,
337,38778,,,,,
320,38791,,,,,
337,38802,,,,,
335,38813,,,,,
336,38824,,,,,
357,38836,,,,,
339,38847,,,,,
367,38859,,,,,
354,38871,,,,,
376,38882,,,,,
380,38893,,,,,
383,38904,,,,,
405,38917,,,,,
384,38928,,,,,
402,38939,,,,,
367,38950,,,,,
358,38962,,,,,
333,38973,,,,,
315,38985,,,,,
322,38996,,,,,
298,39008,,,,,
319,39019,,,,,
302,39030,,,,,
317,39042,,,,,
315,39054,,,,,
309,39065,,,,,
330,39076,,,,,
308,39088,,,,,
333,39099,,,,,
316,39110,,,,,
326,39122,,,,,
323,39134,,,,,
317,39145,,,,,
335,39156,,,,,
315,39168,,,,,
336,39179,,,,,
316,39191,,,,,
334,39202,,,,,
340,39214,,,,,
329,39225,,,,,
338,39236,,,,,
310,39248,,,,,
332,39260,,,,,
313,39271,,,,,
324,39282,,,,,
324,39293,,,,,
309,39305,,,,,
376,39317,,,,,
533,39328,,,,,
479,39340,,,,,
225,39351,,,,,
266,39362,,,,,
315,39373,,,,,
314,39386,,,,,
335,39397,,,,,
317,39408,,,,,
343,39419,,,,,
330,39431,,,,,
340,39442,,,,,
344,39454,,,,,
339,39465,,,,,
363,39477,,,,,
345,39488,,,,,
374,39499,,,,,
366,39511,,,,,
382,39523,,,,,
391,39534,,,,,
382,39545,,,,,
399,39557,,,,,
367,39568,,,,,
372,39579,,,,,
334,39591,,,,,
327,39603,,,,,
320,39614,,,,,
303,39625,,,,,
323,39636,,,,,
301,39649,,,,,
322,39660,,,,,
309,39671,,,,,
317,39683,,,,,
322,39694,,,,,
311,39705,,,,,
334,39717,,,,,
313,39729,,,,,
332,39740,,,,,
318,39751,,,,,
323,39762,,,,,
329,39774,,,,,
319,39786,,,,,
334,39797,,,,,
318,39809,,,,,
346,39820,,,,,
334,39831,,,,,
331,39842,,,,,
327,39855,,,,,
311,39866,,,,,
334,39877,,,,,
311,39888,,,,,
331,39900,,,,,
319,39911,,,,,
311,39923,,,,,
428,39934,,,,,
569,39946,,,,,
395,39957,,,,,
224,39968,,,,,
298,39981,,,,,
312,39992,,,,,
319,40003,,,,,
331,40014,,,,,
319,40026,,,,,
343,40037,,,,,
325,40049,,,,,
346,40060,,,,,
337,40072,,,,,
344,40083,,,,,
360,40094,,,,,
348,40105,,,,,
380,40118,,,,,
364,40129,,,,,
390,40140,,,,,
382,40152,,,,,
385,40163,,,,,
389,40174,,,,,
362,40186,,,,,
368,40198,,,,,
324,40209,,,,,
327,40220,,,,,
310,40231,,,,,
309,40243,,,,,
318,40255,,,,,
300,40266,,,,,
328,40278,,,,,
307,40289,,,,,
325,40300,,,,,
316,40311,,,,,
318,40324,,,,,
329,40335,,,,,
312,40346,,,,,
335,40357,,,,,
313,40369,,,,,
331,40381,,,,,
324,40392,,,,,
319,40403,,,,,
340,40415,,,,,
329,40426,,,,,
352,40437,,,,,
323,40450,,,,,
328,40461,,,,,
318,40472,,,,,
318,40483,,,,,
332,40495,,,,,
313,40506,,,,,
334,40518,,,,,
314,40529,,,,,
477,40541,,,,,
564,40552,,,,,
317,40563,,,,,
251,40574,,,,,
289,40587,,,,,
330,40598,,,,,
314,40609,,,,,
332,40621,,,,,
328,40632,,,,,
330,40643,,,,,
346,40655,,,,,
330,40667,,,,,
359,40678,,,,,
341,40689,,,,,
360,40700,,,,,
362,40713,,,,,
366,40724,,,,,
390,40735,,,,,
374,40747,,,,,
404,40758,,,,,
381,40769,,,,,
387,40781,,,,,
367,40793,,,,,
345,40804,,,,,
341,40815,,,,,
309,40826,,,,,
326,40838,,,,,
303,40850,,,,,
316,40861,,,,,
316,40872,,,,,
311,40884,,,,,
328,40895,,,,,
309,40906,,,,,
332,40919,,,,,
314,40930,,,,,
328,40941,,,,,
323,40952,,,,,
319,40964,,,,,
335,40975,,,,,
316,40987,,,,,
339,40998,,,,,
324,41010,,,,,
341,41021,,,,,
342,41032,,,,,
328,41043,,,,,
337,41056,,,,,
312,41067,,,,,
334,41078,,,,,
316,41090,,,,,
329,41101,,,,,
324,41113,,,,,
309,41124,,,,,
453,41136,,,,,
569,41147,,,,,
359,41158,,,,,
219,41169,,,,,
291,41182,,,,,
318,41193,,,,,
314,41204,,,,,
337,41216,,,,,
320,41227,,,,,
343,41238,,,,,
330,41250,,,,,
341,41262,,,,,
345,41273,,,,,
341,41284,,,,,
367,41295,,,,,
350,41307,,,,,
381,41319,,,,,
372,41330,,,,,
390,41341,,,,,
394,41353,,,,,
384,41364,,,,,
397,41375,,,,,
361,41388,,,,,
365,41399,,,,,
325,41410,,,,,
319,41421,,,,,
315,41433,,,,,
303,41445,,,,,
321,41456,,,,,
298,41467,,,,,
320,41479,,,,,
308,41490,,,,,
317,41501,,,,,
322,41513,,,,,
316,41525,,,,,
336,41536,,,,,
315,41547,,,,,
336,41559,,,,,
321,41570,,,,,
333,41582,,,,,
340,41593,,,,,
331,41605,,,,,
343,41616,,,,,
314,41627,,,,,
330,41638,,,,,
313,41651,,,,,
320,41662,,,,,
326,41673,,,,,
313,41684,,,,,
325,41696,,,,,
405,41707,,,,,
576,41719,,,,,
353,41731,,,,,
216,41742,,,,,
285,41753,,,,,
305,41764,,,,,
333,41776,,,,,
314,41788,,,,,
336,41799,,,,,
329,41810,,,,,
337,41822,,,,,
344,41833,,,,,
333,41845,,,,,
361,41857,,,,,
344,41868,,,,,
371,41879,,,,,
364,41890,,,,,
379,41902,,,,,
394,41914,,,,,
385,41925,,,,,
406,41936,,,,,
377,41948,,,,,
382,41959,,,,,
349,41970,,,,,
330,41982,,,,,
323,41994,,,,,
300,42005,,,,,
323,42016,,,,,
297,42028,,,,,
316,42039,,,,,
305,42051,,,,,
312,42062,,,,,
323,42074,,,,,
310,42085,,,,,
334,42096,,,,,
315,42107,,,,,
334,42120,,,,,
323,42131,,,,,
323,42142,,,,,
340,42153,,,,,
329,42165,,,,,
347,42177,,,,,
317,42188,,,,,
325,42200,,,,,
313,42211,,,,,
317,42222,,,,,
328,42233,,,,,
310,42246,,,,,
329,42257,,,,,
311,42268,,,,,
479,42279,,,,,
525,42291,,,,,
275,42302,,,,,
245,42314,,,,,
289,42326,,,,,
331,42337,,,,,
312,42348,,,,,
333,42359,,,,,
327,42371,,,,,
332,42383,,,,,
347,42394,,,,,
331,42405,,,,,
359,42417,,,,,
339,42428,,,,,
361,42439,,,,,
360,42451,,,,,
367,42463,,,,,
391,42474,,,,,
379,42485,,,,,
405,42497,,,,,
382,42508,,,,,
387,42520,,,,,
362,42531,,,,,
341,42543,,,,,
337,42554,,,,,
305,42565,,,,,
323,42577,,,,,
302,42589,,,,,
316,42600,,,,,
310,42611,,,,,
309,42622,,,,,
326,42634,,,,,
309,42646,,,,,
333,42657,,,,,
312,42669,,,,,
327,42680,,,,,
325,42691,,,,,
322,42702,,,,,
336,42715,,,,,
315,42726,,,,,
345,42737,,,,,
330,42748,,,,,
340,42760,,,,,
326,42771,,,,,
318,42783,,,,,
331,42795,,,,,
310,42806,,,,,
333,42817,,,,,
313,42828,,,,,
322,42840,,,,,
328,42852,,,,,
488,42863,,,,,
543,42874,,,,,
267,42886,,,,,
263,42897,,,,,
295,42909,,,,,
321,42920,,,,,
320,42932,,,,,
319,42943,,,,,
340,42954,,,,,
323,42966,,,,,
348,42978,,,,,
331,42989,,,,,
347,43000,,,,,
349,43012,,,,,
347,43023,,,,,
371,43034,,,,,
360,43046,,,,,
391,43058,,,,,
379,43069,,,,,
393,43080,,,,,
387,43091,,,,,
372,43103,,,,,
375,43115,,,,,
331,43126,,,,,
336,43138,,,,,
309,43149,,,,,
314,43160,,,,,
313,43171,,,,,
305,43184,,,,,
327,43195,,,,,
305,43206,,,,,
328,43217,,,,,
310,43229,,,,,
320,43240,,,,,
324,43252,,,,,
315,43264,,,,,
334,43275,,,,,
312,43286,,,,,
336,43297,,,,,
320,43310,,,,,
327,43321,,,,,
332,43332,,,,,
330,43343,,,,,
351,43355,,,,,
322,43366,,,,,
334,43378,,,,,
314,43389,,,,,
322,43401,,,,,
326,43412,,,,,
312,43423,,,,,
334,43435,,,,,
300,43447,,,,,
405,43458,,,,,
564,43469,,,,,
433,43481,,,,,
244,43492,,,,,
275,43503,,,,,
327,43515,,,,,
307,43527,,,,,
330,43538,,,,,
321,43549,,,,,
332,43560,,,,,
339,43572,,,,,
328,43584,,,,,
353,43595,,,,,
333,43607,,,,,
357,43618,,,,,
348,43629,,,,,
363,43641,,,,,
379,43653,,,,,
373,43664,,,,,
398,43675,,,,,
377,43686,,,,,
393,43698,,,,,
366,43710,,,,,
352,43721,,,,,
339,43732,,,,,
312,43744,,,,,
327,43755,,,,,
301,43766,,,,,
320,43779,,,,,
307,43790,,,,,
313,43801,,,,,
319,43812,,,,,
307,43824,,,,,
331,43835,,,,,
310,43847,,,,,
328,43858,,,,,
315,43870,,,,,
321,43881,,,,,
328,43892,,,,,
315,43904,,,,,
336,43916,,,,,
317,43927,,,,,
334,43938,,,,,
320,43950,,,,,
336,43961,,,,,
347,43972,,,,,
331,43984,,,,,
342,43996,,,,,
312,44007,,,,,
329,44018,,,,,
318,44029,,,,,
323,44042,,,,,
334,44053,,,,,
308,44064,,,,,
359,44076,,,,,
519,44087,,,,,
539,44098,,,,,
265,44110,,,,,
264,44122,,,,,
318,44133,,,,,
309,44144,,,,,
336,44155,,,,,
318,44167,,,,,
339,44179,,,,,
330,44190,,,,,
333,44201,,,,,
347,44213,,,,,
335,44224,,,,,
363,44235,,,,,
347,44248,,,,,
370,44259,,,,,
368,44270,,,,,
377,44281,,,,,
393,44293,,,,,
380,44304,,,,,
402,44316,,,,,
372,44327,,,,,
372,44339,,,,,
341,44350,,,,,
323,44361,,,,,
325,44374,,,,,
304,44385,,,,,
327,44396,,,,,
305,44407,,,,,
320,44419,,,,,
313,44430,,,,,
313,44442,,,,,
327,44453,,,,,
309,44465,,,,,
333,44476,,,,,
313,44487,,,,,
330,44498,,,,,
321,44511,,,,,
319,44522,,,,,
333,44533,,,,,
317,44545,,,,,
336,44556,,,,,
317,44567,,,,,
347,44579,,,,,
339,44591,,,,,
331,44602,,,,,
336,44613,,,,,
312,44624,,,,,
335,44636,,,,,
315,44648,,,,,
330,44659,,,,,
322,44670,,,,,
308,44682,,,,,
407,44693,,,,,
574,44704,,,,,
464,44717,,,,,
235,44728,,,,,
285,44739,,,,,
312,44750,,,,,
311,44762,,,,,
333,44774,,,,,
316,44785,,,,,
342,44796,,,,,
327,44808,,,,,
343,44819,,,,,
339,44830,,,,,
339,44843,,,,,
362,44854,,,,,
346,44865,,,,,
377,44876,,,,,
367,44888,,,,,
388,44899,,,,,
389,44911,,,,,
383,44922,,,,,
397,44934,,,,,
365,44945,,,,,
369,44956,,,,,
328,44967,,,,,
326,44980,,,,,
313,44991,,,,,
302,45002,,,,,
319,45014,,,,,
302,45025,,,,,
323,45036,,,,,
304,45048,,,,,
319,45060,,,,,
316,45071,,,,,
309,45082,,,,,
329,45093,,,,,
308,45106,,,,,
330,45117,,,,,
312,45128,,,,,
325,45139,,,,,
326,45151,,,,,
318,45162,,,,,
333,45174,,,,,
319,45186,,,,,
349,45197,,,,,
331,45208,,,,,
331,45219,,,,,
322,45231,,,,,
313,45243,,,,,
332,45254,,,,,
312,45265,,,,,
334,45277,,,,,
311,45288,,,,,
325,45299,,,,,
491,45312,,,,,
546,45323,,,,,
295,45334,,,,,
231,45345,,,,,
309,45357,,,,,
308,45368,,,,,
323,45380,,,,,
327,45391,,,,,
318,45403,,,,,
343,45414,,,,,
326,45425,,,,,
350,45436,,,,,
337,45449,,,,,
350,45460,,,,,
356,45471,,,,,
355,45483,,,,,
385,45494,,,,,
371,45506,,,,,
400,45517,,,,,
385,45529,,,,,
395,45540,,,,,
391,45551,,,,,
364,45562,,,,,
361,45575,,,,,
319,45586,,,,,
326,45597,,,,,
303,45608,,,,,
310,45620,,,,,
312,45631,,,,,
300,45643,,,,,
324,45655,,,,,
305,45666,,,,,
326,45677,,,,,
314,45688,,,,,
324,45700,,,,,
327,45712,,,,,
314,45723,,,,,
338,45734,,,,,
315,45746,,,,,
333,45757,,,,,
324,45768,,,,,
335,45780,,,,,
340,45792,,,,,
321,45803,,,,,
335,45814,,,,,
307,45826,,,,,
326,45838,,,,,
313,45849,,,,,
319,45860,,,,,
324,45872,,,,,
302,45883,,,,,
425,45894,,,,,
564,45906,,,,,
381,45918,,,,,
211,45929,,,,,
278,45940,,,,,
321,45952,,,,,
311,45963,,,,,
335,45975,,,,,
317,45986,,,,,
341,45998,,,,,
331,46009,,,,,
338,46020,,,,,
348,46031,,,,,
339,46044,,,,,
367,46055,,,,,
350,46066,,,,,
378,46077,,,,,
375,46089,,,,,
385,46100,,,,,
400,46112,,,,,
383,46124,,,,,
402,46135,,,,,
365,46146,,,,,
361,46157,,,,,
328,46169,,,,,
316,46181,,,,,
316,46192,,,,,
298,46203,,,,,
319,46215,,,,,
297,46226,,,,,
315,46238,,,,,
307,46249,,,,,
311,46261,,,,,
326,46272,,,,,
309,46283,,,,,
334,46295,,,,,
315,46307,,,,,
334,46318,,,,,
322,46329,,,,,
323,46341,,,,,
339,46352,,,,,
327,46363,,,,,
347,46375,,,,,
315,46387,,,,,
326,46398,,,,,
314,46409,,,,,
315,46420,,,,,
328,46432,,,,,
311,46444,,,,,
325,46455,,,,,
348,46467,,,,,
540,46478,,,,,
452,46489,,,,,
221,46500,,,,,
269,46513,,,,,
299,46524,,,,,
329,46535,,,,,
313,46546,,,,,
331,46558,,,,,
328,46570,,,,,
332,46581,,,,,
348,46593,,,,,
331,46604,,,,,
360,46615,,,,,
343,46626,,,,,
362,46639,,,,,
361,46650,,,,,
369,46661,,,,,
394,46672,,,,,
379,46684,,,,,
404,46695,,,,,
380,46707,,,,,
386,46718,,,,,
360,46730,,,,,
334,46741,,,,,
333,46752,,,,,
302,46764,,,,,
322,46776,,,,,
301,46787,,,,,
314,46798,,,,,
312,46810,,,,,
311,46821,,,,,
328,46832,,,,,
311,46844,,,,,
333,46856,,,,,
313,46867,,,,,
329,46878,,,,,
326,46889,,,,,
320,46901,,,,,
335,46913,,,,,
324,46924,,,,,
350,46936,,,,,
327,46947,,,,,
330,46958,,,,,
319,46970,,,,,
315,46982,,,,,
332,46993,,,,,
312,47004,,,,,
335,47015,,,,,
308,47027,,,,,
335,47039,,,,,
499,47050,,,,,
513,47062,,,,,
279,47073,,,,,
241,47084,,,,,
319,47095,,,,,
310,47108,,,,,
323,47119,,,,,
326,47130,,,,,
325,47141,,,,,
342,47153,,,,,
324,47164,,,,,
350,47176,,,,,
334,47187,,,,,
352,47199,,,,,
356,47210,,,,,
358,47221,,,,,
381,47233,,,,,
367,47245,,,,,
397,47256,,,,,
381,47267,,,,,
388,47279,,,,,
381,47290,,,,,
356,47302,,,,,
355,47313,,,,,
316,47325,,,,,
327,47336,,,,,
305,47347,,,,,
314,47358,,,,,
314,47371,,,,,
306,47382,,,,,
326,47393,,,,,
304,47405,,,,,
328,47416,,,,,
313,47427,,,,,
323,47439,,,,,
324,47451,,,,,
318,47462,,,,,
335,47473,,,,,
310,47484,,,,,
337,47496,,,,,
330,47508,,,,,
339,47519,,,,,
336,47531,,,,,
317,47542,,,,,
334,47553,,,,,
310,47564,,,,,
330,47577,,,,,
313,47588,,,,,
322,47599,,,,,
313,47610,,,,,
412,47622,,,,,
590,47633,,,,,
377,47645,,,,,
250,47656,,,,,
283,47668,,,,,
319,47679,,,,,
321,47690,,,,,
315,47703,,,,,
340,47714,,,,,
322,47725,,,,,
345,47736,,,,,
332,47748,,,,,
342,47759,,,,,
349,47771,,,,,
343,47782,,,,,
369,47794,,,,,
354,47805,,,,,
385,47816,,,,,
376,47827,,,,,
385,47840,,,,,
389,47851,,,,,
371,47862,,,,,
380,47874,,,,,
338,47885,,,,,
339,47896,,,,,
312,47908,,,,,
317,47920,,,,,
319,47931,,,,,
305,47942,,,,,
326,47953,,,,,
305,47965,,,,,
326,47977,,,,,
311,47988,,,,,
317,48000,,,,,
326,48011,,,,,
312,48022,,,,,
336,48034,,,,,
313,48046,,,,,
333,48057,,,,,
318,48068,,,,,
325,48079,,,,,
341,48091,,,,,
327,48103,,,,,
345,48114,,,,,
313,48125,,,,,
329,48137,,,,,
314,48148,,,,,
319,48159,,,,,
327,48172,,,,,
309,48183,,,,,
321,48194,,,,,
361,48205,,,,,
562,48217,,,,,
461,48228,,,,,
241,48240,,,,,
280,48251,,,,,
302,48263,,,,,
331,48274,,,,,
312,48285,,,,,
334,48296,,,,,
326,48309,,,,,
331,48320,,,,,
343,48331,,,,,
331,48343,,,,,
357,48354,,,,,
337,48365,,,,,
361,48377,,,,,
357,48389,,,,,
368,48400,,,,,
386,48411,,,,,
375,48422,,,,,
396,48435,,,,,
370,48446,,,,,
379,48457,,,,,
355,48468,,,,,
336,48480,,,,,
330,48491,,,,,
307,48503,,,,,
326,48515,,,,,
305,48526,,,,,
322,48537,,,,,
314,48548,,,,,
315,48560,,,,,
326,48572,,,,,
310,48583,,,,,
334,48594,,,,,
312,48606,,,,,
330,48617,,,,,
321,48628,,,,,
321,48641,,,,,
331,48652,,,,,
312,48663,,,,,
341,48674,,,,,
327,48686,,,,,
345,48697,,,,,
332,48709,,,,,
323,48720,,,,,
330,48732,,,,,
309,48743,,,,,
332,48754,,,,,
313,48766,,,,,
325,48778,,,,,
309,48789,,,,,
433,48800,,,,,
593,48812,,,,,
351,48823,,,,,
246,48835,,,,,
282,48846,,,,,
322,48858,,,,,
320,48869,,,,,
319,48880,,,,,
340,48891,,,,,
323,48904,,,,,
350,48915,,,,,
333,48926,,,,,
347,48937,,,,,
348,48949,,,,,
352,48960,,,,,
370,48972,,,,,
359,48984,,,,,
390,48995,,,,,
376,49006,,,,,
392,49017,,,,,
389,49029,,,,,
379,49041,,,,,
379,49052,,,,,
342,49063,,,,,
347,49075,,,,,
314,49086,,,,,
319,49097,,,,,
314,49110,,,,,
309,49121,,,,,
324,49132,,,,,
307,49143,,,,,
329,49155,,,,,
312,49167,,,,,
325,49178,,,,,
325,49189,,,,,
320,49201,,,,,
339,49212,,,,,
318,49223,,,,,
339,49235,,,,,
321,49247,,,,,
339,49258,,,,,
340,49269,,,,,
330,49281,,,,,
337,49292,,,,,
311,49304,,,,,
331,49315,,,,,
313,49327,,,,,
325,49338,,,,,
323,49349,,,,,
307,49360,,,,,
377,49373,,,,,
538,49384,,,,,
455,49395,,,,,
212,49406,,,,,
267,49418,,,,,
311,49429,,,,,
312,49441,,,,,
335,49453,,,,,
320,49464,,,,,
342,49475,,,,,
326,49486,,,,,
342,49499,,,,,
344,49510,,,,,
341,49521,,,,,
362,49532,,,,,
346,49544,,,,,
375,49555,,,,,
366,49567,,,,,
382,49579,,,,,
386,49590,,,,,
377,49601,,,,,
392,49612,,,,,
363,49624,,,,,
367,49636,,,,,
331,49647,,,,,
323,49658,,,,,
317,49670,,,,,
300,49681,,,,,
320,49692,,,,,
298,49704,,,,,
322,49716,,,,,
308,49727,,,,,
317,49738,,,,,
323,49750,,,,,
315,49761,,,,,
336,49773,,,,,
315,49784,,,,,
337,49796,,,,,
317,49807,,,,,
330,49818,,,,,
336,49829,,,,,
328,49842,,,,,
342,49853,,,,,
311,49864,,,,,
326,49875,,,,,
312,49887,,,,,
319,49899,,,,,
323,49910,,,,,
311,49922,,,,,
323,49933,,,,,
395,49944,,,,,
569,49955,,,,,
366,49968,,,,,
220,49979,,,,,
285,49990,,,,,
308,50001,,,,,
333,50013,,,,,
314,50024,,,,,
340,50036,,,,,
325,50048,,,,,
336,50059,,,,,
345,50070,,,,,
335,50081,,,,,
361,50093,,,,,
344,50105,,,,,
368,50116,,,,,
361,50127,,,,,
375,50139,,,,,
386,50150,,,,,
374,50161,,,,,
395,50173,,,,,
368,50185,,,,,
375,50196,,,,,
345,50207,,,,,
332,50219,,,,,
323,50231,,,,,
304,50242,,,,,
325,50253,,,,,
303,50265,,,,,
322,50276,,,,,
312,50287,,,,,
318,50299,,,,,
326,50311,,,,,
314,50322,,,,,
335,50333,,,,,
313,50344,,,,,
336,50356,,,,,
321,50368,,,,,
324,50379,,,,,
339,50391,,,,,
327,50402,,,,,
347,50413,,,,,
315,50424,,,,,
325,50437,,,,,
313,50448,,,,,
316,50459,,,,,
326,50470,,,,,
311,50482,,,,,
327,50493,,,,,
319,50505,,,,,
503,50516,,,,,
505,50528,,,,,
258,50539,,,,,
255,50550,,,,,
295,50562,,,,,
329,50574,,,,,
311,50585,,,,,
334,50596,,,,,
325,50608,,,,,
330,50619,,,,,
344,50631,,,,,
330,50642,,,,,
356,50654,,,,,
338,50665,,,,,
361,50676,,,,,
355,50688,,,,,
367,50700,,,,,
384,50711,,,,,
370,50722,,,,,
394,50734,,,,,
370,50745,,,,,
380,50756,,,,,
356,50768,,,,,
340,50780,,,,,
335,50791,,,,,
307,50802,,,,,
328,50813,,,,,
305,50825,,,,,
323,50837,,,,,
314,50848,,,,,
317,50860,,,,,
331,50871,,,,,
313,50882,,,,,
337,50893,,,,,
315,50906,,,,,
334,50917,,,,,
326,50928,,,,,
324,50939,,,,,
333,50951,,,,,
324,50963,,,,,
352,50974,,,,,
329,50985,,,,,
334,50997,,,,,
316,51008,,,,,
316,51019,,,,,
329,51032,,,,,
311,51043,,,,,
333,51054,,,,,
308,51065,,,,,
330,51077,,,,,
487,51088,,,,,
526,51100,,,,,
290,51111,,,,,
242,51123,,,,,
318,51134,,,,,
309,51145,,,,,
325,51156,,,,,
323,51169,,,,,
325,51180,,,,,
343,51191,,,,,
326,51203,,,,,
351,51214,,,,,
334,51225,,,,,
352,51237,,,,,
351,51249,,,,,
355,51260,,,,,
376,51271,,,,,
362,51282,,,,,
389,51294,,,,,
371,51306,,,,,
381,51317,,,,,
371,51329,,,,,
355,51340,,,,,
354,51351,,,,,
318,51363,,,,,
332,51375,,,,,
307,51386,,,,,
321,51397,,,,,
317,51408,,,,,
312,51420,,,,,
330,51432,,,,,
313,51443,,,,,
333,51454,,,,,
314,51466,,,,,
328,51477,,,,,
325,51488,,,,,
319,51501,,,,,
338,51512,,,,,
317,51523,,,,,
335,51534,,,,,
326,51546,,,,,
342,51557,,,,,
339,51569,,,,,
323,51580,,,,,
332,51592,,,,,
309,51603,,,,,
332,51614,,,,,
314,51625,,,,,
324,51638,,,,,
321,51649,,,,,
317,51660,,,,,
490,51672,,,,,
546,51683,,,,,
320,51695,,,,,
242,51706,,,,,
308,51718,,,,,
319,51729,,,,,
315,51740,,,,,
337,51751,,,,,
319,51764,,,,,
346,51775,,,,,
332,51786,,,,,
343,51798,,,,,
348,51809,,,,,
342,51820,,,,,
366,51832,,,,,
350,51844,,,,,
379,51855,,,,,
368,51866,,,,,
381,51877,,,,,
383,51889,,,,,
371,51901,,,,,
385,51912,,,,,
352,51923,,,,,
355,51935,,,,,
324,51946,,,,,
322,51957,,,,,
319,51970,,,,,
306,51981,,,,,
328,51992,,,,,
308,52003,,,,,
330,52015,,,,,
314,52026,,,,,
324,52038,,,,,
326,52049,,,,,
314,52061,,,,,
334,52072,,,,,
313,52083,,,,,
333,52096,,,,,
317,52107,,,,,
322,52118,,,,,
332,52129,,,,,
329,52141,,,,,
351,52152,,,,,
321,52164,,,,,
330,52175,,,,,
313,52187,,,,,
320,52198,,,,,
323,52209,,,,,
313,52220,,,,,
331,52233,,,,,
299,52244,,,,,
445,52255,,,,,
578,52267,,,,,
359,52278,,,,,
243,52289,,,,,
285,52301,,,,,
328,52313,,,,,
309,52324,,,,,
331,52335,,,,,
321,52346,,,,,
329,52358,,,,,
337,52370,,,,,
328,52381,,,,,
352,52392,,,,,
335,52404,,,,,
358,52415,,,,,
351,52427,,,,,
364,52439,,,,,
377,52450,,,,,
367,52461,,,,,
391,52472,,,,,
367,52484,,,,,
381,52496,,,,,
359,52507,,,,,
350,52518,,,,,
341,52530,,,,,
313,52541,,,,,
329,52552,,,,,
306,52564,,,,,
327,52576,,,,,
314,52587,,,,,
319,52598,,,,,
329,52610,,,,,
314,52621,,,,,
336,52633,,,,,
318,52644,,,,,
334,52656,,,,,
322,52667,,,,,
326,52678,,,,,
334,52689,,,,,
315,52702,,,,,
343,52713,,,,,
327,52724,,,,,
346,52736,,,,,
330,52747,,,,,
324,52758,,,,,
327,52770,,,,,
311,52782,,,,,
333,52793,,,,,
312,52804,,,,,
329,52815,,,,,
306,52828,,,,,
390,52839,,,,,
587,52850,,,,,
405,52861,,,,,
236,52873,,,,,
265,52884,,,,,
318,52896,,,,,
315,52908,,,,,
321,52919,,,,,
337,52930,,,,,
321,52941,,,,,
349,52953,,,,,
331,52965,,,,,
349,52976,,,,,
344,52987,,,,,
348,52999,,,,,
365,53010,,,,,
352,53021,,,,,
385,53033,,,,,
369,53045,,,,,
386,53056,,,,,
376,53067,,,,,
373,53079,,,,,
378,53090,,,,,
345,53102,,,,,
348,53113,,,,,
312,53125,,,,,
321,53136,,,,,
310,53147,,,,,
307,53159,,,,,
322,53171,,,,,
306,53182,,,,,
330,53193,,,,,
312,53204,,,,,
328,53216,,,,,
323,53228,,,,,
321,53239,,,,,
336,53251,,,,,
316,53262,,,,,
337,53273,,,,,
317,53284,,,,,
334,53297,,,,,
335,53308,,,,,
332,53319,,,,,
336,53330,,,,,
309,53342,,,,,
331,53353,,,,,
310,53365,,,,,
324,53377,,,,,
320,53388,,,,,
310,53399,,,,,
348,53410,,,,,
512,53422,,,,,
501,53434,,,,,
218,53445,,,,,
251,53456,,,,,
304,53468,,,,,
314,53479,,,,,
333,53490,,,,,
318,53502,,,,,
345,53514,,,,,
329,53525,,,,,
345,53536,,,,,
345,53548,,,,,
343,53560,,,,,
361,53571,,,,,
347,53582,,,,,
378,53594,,,,,
366,53605,,,,,
384,53616,,,,,
384,53628,,,,,
378,53640,,,,,
390,53651,,,,,
362,53662,,,,,
373,53673,,,,,
336,53685,,,,,
331,53697,,,,,
318,53708,,,,,
306,53720,,,,,
322,53731,,,,,
301,53742,,,,,
326,53753,,,,,
310,53766,,,,,
323,53777,,,,,
323,53788,,,,,
318,53799,,,,,
337,53811,,,,,
316,53822,,,,,
338,53834,,,,,
320,53846,,,,,
327,53857,,,,,
333,53868,,,,,
329,53879,,,,,
349,53892,,,,,
316,53903,,,,,
331,53914,,,,,
309,53925,,,,,
322,53937,,,,,
322,53948,,,,,
311,53960,,,,,
328,53971,,,,,
318,53983,,,,,
507,53994,,,,,
507,54005,,,,,
253,54017,,,,,
242,54029,,,,,
296,54040,,,,,
331,54051,,,,,
312,54063,,,,,
337,54074,,,,,
324,54085,,,,,
339,54097,,,,,
343,54109,,,,,
336,54120,,,,,
359,54131,,,,,
339,54142,,,,,
367,54154,,,,,
356,54166,,,,,
370,54177,,,,,
379,54189,,,,,
372,54200,,,,,
394,54211,,,,,
367,54222,,,,,
382,54235,,,,,
355,54246,,,,,
345,54257,,,,,
331,54268,,,,,
309,54280,,,,,
325,54292,,,,,
303,54303,,,,,
324,54315,,,,,
310,54326,,,,,
320,54337,,,,,
327,54348,,,,,
315,54361,,,,,
336,54372,,,,,
314,54383,,,,,
333,54394,,,,,
320,54406,,,,,
326,54417,,,,,
328,54429,,,,,
317,54440,,,,,
345,54452,,,,,
327,54463,,,,,
345,54474,,,,,
318,54486,,,,,
319,54498,,,,,
325,54509,,,,,
310,54520,,,,,
334,54532,,,,,
311,54543,,,,,
320,54554,,,,,
358,54566,,,,,
550,54578,,,,,
472,54589,,,,,
222,54600,,,,,
279,54611,,,,,
301,54624,,,,,
329,54635,,,,,
319,54646,,,,,
326,54658,,,,,
337,54669,,,,,
327,54680,,,,,
351,54692,,,,,
331,54704,,,,,
353,54715,,,,,
346,54726,,,,,
355,54737,,,,,
369,54749,,,,,
359,54761,,,,,
389,54772,,,,,
372,54784,,,,,
388,54795,,,,,
371,54806,,,,,
367,54817,,,,,
361,54830,,,,,
328,54841,,,,,
337,54852,,,,,
309,54863,,,,,
322,54875,,,,,
310,54886,,,,,
313,54898,,,,,
326,54909,,,,,
311,54921,,,,,
334,54932,,,,,
315,54943,,,,,
331,54955,,,,,
321,54967,,,,,
322,54978,,,,,
333,54989,,,,,
316,55001,,,,,
338,55012,,,,,
313,55024,,,,,
338,55035,,,,,
334,55047,,,,,
334,55058,,,,,
336,55069,,,,,
311,55080,,,,,
331,55093,,,,,
310,55104,,,,,
327,55115,,,,,
319,55127,,,,,
314,55138,,,,,
333,55149,,,,,
479,55161,,,,,
563,55173,,,,,
278,55184,,,,,
253,55195,,,,,
299,55206,,,,,
314,55218,,,,,
329,55230,,,,,
313,55241,,,,,
340,55252,,,,,
323,55264,,,,,
341,55275,,,,,
336,55286,,,,,
341,55299,,,,,
358,55310,,,,,
344,55321,,,,,
372,55332,,,,,
357,55344,,,,,
378,55356,,,,,
373,55367,,,,,
373,55378,,,,,
386,55390,,,,,
361,55401,,,,,
371,55412,,,,,
335,55425,,,,,
334,55436,,,,,
317,55447,,,,,
308,55458,,,,,
322,55470,,,,,
303,55481,,,,,
328,55493,,,,,
311,55504,,,,,
325,55516,,,,,
319,55527,,,,,
317,55538,,,,,
334,55549,,,,,
314,55562,,,,,
338,55573,,,,,
317,55584,,,,,
329,55596,,,,,
325,55607,,,,,
318,55618,,,,,
344,55630,,,,,
328,55642,,,,,
352,55653,,,,,
325,55664,,,,,
328,55675,,,,,
321,55687,,,,,
316,55699,,,,,
333,55710,,,,,
315,55721,,,,,
333,55733,,,,,
313,55744,,,,,
479,55756,,,,,
580,55768,,,,,
313,55779,,,,,
258,55790,,,,,
291,55801,,,,,
329,55813,,,,,
314,55825,,,,,
327,55836,,,,,
331,55847,,,,,
327,55859,,,,,
348,55870,,,,,
331,55881,,,,,
358,55894,,,,,
343,55905,,,,,
356,55916,,,,,
362,55927,,,,,
360,55939,,,,,
385,55950,,,,,
366,55962,,,,,
389,55973,,,,,
369,55985,,,,,
375,55996,,,,,
364,56007,,,,,
340,56018,,,,,
342,56031,,,,,
311,56042,,,,,
327,56053,,,,,
308,56065,,,,,
319,56076,,,,,
320,56088,,,,,
312,56099,,,,,
333,56111,,,,,
312,56122,,,,,
334,56133,,,,,
317,56144,,,,,
325,56157,,,,,
327,56168,,,,,
317,56179,,,,,
338,56190,,,,,
316,56202,,,,,
334,56213,,,,,
324,56225,,,,,
338,56237,,,,,
343,56248,,,,,
326,56259,,,,,
337,56270,,,,,
312,56282,,,,,
332,56294,,,,,
317,56305,,,,,
324,56316,,,,,
326,56328,,,,,
301,56339,,,,,
429,56350,,,,,
584,56363,,,,,
406,56374,,,,,
231,56385,,,,,
288,56396,,,,,
320,56408,,,,,
311,56419,,,,,
334,56431,,,,,
318,56442,,,,,
341,56454,,,,,
330,56465,,,,,
339,56476,,,,,
349,56488,,,,,
339,56500,,,,,
363,56511,,,,,
347,56522,,,,,
376,56534,,,,,
366,56545,,,,,
376,56557,,,,,
384,56568,,,,,
368,56580,,,,,
387,56591,,,,,
355,56602,,,,,
361,56613,,,,,
331,56626,,,,,
320,56637,,,,,
325,56648,,,,,
307,56659,,,,,
328,56671,,,,,
305,56682,,,,,
326,56694,,,,,
313,56706,,,,,
319,56717,,,,,
329,56728,,,,,
314,56739,,,,,
337,56751,,,,,
315,56763,,,,,
331,56774,,,,,
320,56785,,,,,
321,56797,,,,,
329,56808,,,,,
317,56820,,,,,
346,56832,,,,,
329,56843,,,,,
341,56854,,,,,
319,56865,,,,,
317,56877,,,,,
327,56889,,,,,
310,56900,,,,,
333,56911,,,,,
312,56923,,,,,
319,56934,,,,,
404,56945,,,,,
591,56957,,,,,
413,56969,,,,,
213,56980,,,,,
289,56991,,,,,
304,57003,,,,,
326,57014,,,,,
320,57026,,,,,
326,57037,,,,,
341,57049,,,,,
327,57060,,,,,
351,57071,,,,,
334,57082,,,,,
355,57095,,,,,
350,57106,,,,,
357,57117,,,,,
376,57128,,,,,
365,57140,,,,,
395,57151,,,,,
374,57163,,,,,
387,57175,,,,,
378,57186,,,,,
367,57197,,,,,
364,57208,,,,,
329,57221,,,,,
337,57232,,,,,
305,57243,,,,,
317,57254,,,,,
309,57266,,,,,
310,57277,,,,,
324,57289,,,,,
308,57300,,,,,
332,57312,,,,,
315,57323,,,,,
330,57334,,,,,
323,57346,,,,,
321,57358,,,,,
337,57369,,,,,
315,57380,,,,,
335,57392,,,,,
321,57403,,,,,
340,57414,,,,,
337,57426,,,,,
325,57438,,,,,
331,57449,,,,,
311,57460,,,,,
333,57472,,,,,
314,57483,,,,,
328,57495,,,,,
321,57506,,,,,
311,57518,,,,,
467,57529,,,,,
553,57540,,,,,
319,57552,,,,,
217,57564,,,,,
295,57575,,,,,
320,57586,,,,,
319,57597,,,,,
337,57609,,,,,
321,57621,,,,,
345,57632,,,,,
332,57644,,,,,
347,57655,,,,,
346,57666,,,,,
344,57677,,,,,
367,57690,,,,,
353,57701,,,,,
383,57712,,,,,
369,57723,,,,,
388,57735,,,,,
384,57746,,,,,
375,57758,,,,,
389,57769,,,,,
355,57781,,,,,
359,57792,,,,,
321,57803,,,,,
322,57815,,,,,
311,57827,,,,,
301,57838,,,,,
320,57849,,,,,
301,57861,,,,,
325,57872,,,,,
309,57883,,,,,
321,57895,,,,,
325,57907,,,,,
319,57918,,,,,
336,57929,,,,,
317,57940,,,,,
339,57953,,,,,
318,57964,,,,,
329,57975,,,,,
335,57987,,,,,
328,57998,,,,,
346,58009,,,,,
315,58021,,,,,
331,58033,,,,,
314,58044,,,,,
321,58055,,,,,
322,58066,,,,,
314,58078,,,,,
327,58090,,,,,
357,58101,,,,,
559,58113,,,,,
444,58124,,,,,
222,58135,,,,,
264,58146,,,,,
304,58159,,,,,
332,58170,,,,,
313,58181,,,,,
338,58192,,,,,
325,58204,,,,,
336,58215,,,,,
340,58227,,,,,
334,58238,,,,,
358,58250,,,,,
341,58261,,,,,
367,58272,,,,,
358,58285,,,,,
372,58296,,,,,
382,58307,,,,,
373,58318,,,,,
394,58330,,,,,
368,58341,,,,,
379,58353,,,,,
350,58364,,,,,
337,58376,,,,,
326,58387,,,,,
307,58398,,,,,
324,58409,,,,,
302,58422,,,,,
323,58433,,,,,
307,58444,,,,,
317,58456,,,,,
323,58467,,,,,
313,58478,,,,,
334,58490,,,,,
313,58502,,,,,
335,58513,,,,,
321,58524,,,,,
323,58535,,,,,
328,58547,,,,,
320,58559,,,,,
348,58570,,,,,
326,58582,,,,,
341,58593,,,,,
317,58604,,,,,
319,58615,,,,,
325,58628,,,,,
313,58639,,,,,
336,58650,,,,,
314,58661,,,,,
317,58673,,,,,
395,58685,,,,,
586,58696,,,,,
430,58707,,,,,
229,58719,,,,,
294,58730,,,,,
304,58741,,,,,
327,58754,,,,,
316,58765,,,,,
324,58776,,,,,
336,58787,,,,,
325,58799,,,,,
350,58810,,,,,
331,58822,,,,,
352,58833,,,,,
345,58845,,,,,
355,58856,,,,,
369,58867,,,,,
359,58878,,,,,
387,58891,,,,,
368,58902,,,,,
383,58913,,,,,
367,58925,,,,,
360,58936,,,,,
355,58947,,,,,
323,58959,,,,,
334,58971,,,,,
304,58982,,,,,
320,58993,,,,,
310,59004,,,,,
313,59017,,,,,
325,59028,,,,,
308,59039,,,,,
333,59051,,,,,
314,59062,,,,,
329,59073,,,,,
321,59085,,,,,
321,59097,,,,,
334,59108,,,,,
317,59119,,,,,
338,59130,,,,,
316,59142,,,,,
328,59154,,,,,
333,59165,,,,,
338,59176,,,,,
348,59188,,,,,
320,59199,,,,,
336,59210,,,,,
314,59223,,,,,
329,59234,,,,,
322,59245,,,,,
321,59256,,,,,
328,59268,,,,,
319,59279,,,,,
513,59291,,,,,
552,59302,,,,,
306,59314,,,,,
253,59325,,,,,
301,59336,,,,,
327,59347,,,,,
309,59360,,,,,
336,59371,,,,,
320,59382,,,,,
339,59394,,,,,
333,59405,,,,,
332,59417,,,,,
350,59428,,,,,
335,59440,,,,,
363,59451,,,,,
349,59462,,,,,
369,59473,,,,,
371,59486,,,,,
374,59497,,,,,
389,59508,,,,,
367,59520,,,,,
383,59531,,,,,
351,59542,,,,,
349,59554,,,,,
327,59566,,,,,
314,59577,,,,,
326,59588,,,,,
304,59599,,,,,
327,59611,,,,,
308,59623,,,,,
321,59634,,,,,
319,59645,,,,,
314,59657,,,,,
331,59668,,,,,
311,59679,,,,,
334,59692,,,,,
315,59703,,,,,
328,59714,,,,,
324,59725,,,,,
319,59737,,,,,
337,59749,,,,,
315,59760,,,,,
337,59771,,,,,
330,59783,,,,,
343,59794,,,,,
339,59805,,,,,
323,59817,,,,,
335,59829,,,,,
312,59840,,,,,
335,59851,,,,,
316,59863,,,,,
327,59874,,,,,
317,59886,,,,,
346,59897,,,,,
558,59909,,,,,
503,59920,,,,,
270,59931,,,,,
258,59942,,,,,
313,59955,,,,,
319,59966,,,,,
314,59977,,,,,
337,59988,,,,,
319,60000,,,,,
343,60011,,,,,
