EKG,T,,,,,
359,2,116,0.044872905,0.862068966,0.013831281,0
359,3,,,,,
359,4,,,,,
360,5,,,,,
359,6,,,,,
360,7,,,,,
360,8,,,,,
360,9,,,,,
361,10,,,,,
361,11,,,,,
365,19,,,,,
368,27,,,,,
367,35,,,,,
365,45,,,,,
362,53,,,,,
363,61,,,,,
362,69,,,,,
355,77,,,,,
347,86,,,,,
336,94,,,,,
328,102,,,,,
323,112,,,,,
320,121,,,,,
322,131,,,,,
322,140,,,,,
322,149,,,,,
326,158,,,,,
327,167,,,,,
325,178,,,,,
325,187,,,,,
323,196,,,,,
324,205,,,,,
322,215,,,,,
322,224,,,,,
318,233,,,,,
318,242,,,,,
320,252,,,,,
320,262,,,,,
321,271,,,,,
320,280,,,,,
320,289,,,,,
318,299,,,,,
319,308,,,,,
319,318,,,,,
320,327,,,,,
316,336,,,,,
316,346,,,,,
315,355,,,,,
324,364,,,,,
330,373,,,,,
329,384,,,,,
331,393,,,,,
328,402,,,,,
320,411,,,,,
319,420,,,,,
322,430,,,,,
321,439,,,,,
320,449,,,,,
320,458,,,,,
299,467,,,,,
310,477,,,,,
495,486,,,,,
656,495,,,,,
447,504,,,,,
239,515,,,,,
261,524,,,,,
299,533,,,,,
309,542,,,,,
313,551,,,,,
319,561,,,,,
323,570,,,,,
326,580,,,,,
329,589,,,,,
332,599,,,,,
336,608,,,,,
339,617,,,,,
348,626,,,,,
354,635,,,,,
359,646,,,,,
363,655,,,,,
366,664,,,,,
367,673,,,,,
367,683,,,,,
363,692,,,,,
363,701,,,,,
363,711,,,,,
362,720,,,,,
355,730,,,,,
344,739,,,,,
334,748,,,,,
329,757,,,,,
326,766,,,,,
324,777,,,,,
325,786,,,,,
325,795,,,,,
327,804,,,,,
326,814,,,,,
325,823,,,,,
323,832,,,,,
325,841,,,,,
325,851,,,,,
325,861,,,,,
325,870,,,,,
322,879,,,,,
321,888,,,,,
320,898,,,,,
323,907,,,,,
322,917,,,,,
321,926,,,,,
319,935,,,,,
323,945,,,,,
321,954,,,,,
322,963,,,,,
321,972,,,,,
323,983,,,,,
324,992,,,,,
325,1001,,,,,
324,1011,,,,,
326,1021,,,,,
326,1032,,,,,
325,1043,,,,,
324,1053,,,,,
333,1063,,,,,
340,1074,,,,,
343,1084,,,,,
341,1094,,,,,
338,1104,,,,,
332,1116,,,,,
332,1126,,,,,
334,1136,,,,,
331,1146,,,,,
332,1157,,,,,
316,1167,,,,,
320,1178,,,,,
523,1188,,,,,
647,1199,,,,,
344,1209,,,,,
228,1219,,,,,
283,1229,,,,,
314,1240,,,,,
320,1251,,,,,
325,1261,,,,,
328,1271,,,,,
335,1282,,,,,
338,1292,,,,,
345,1302,,,,,
347,1313,,,,,
355,1324,,,,,
361,1334,,,,,
368,1344,,,,,
370,1354,,,,,
377,1364,,,,,
378,1376,,,,,
378,1386,,,,,
373,1396,,,,,
375,1406,,,,,
373,1417,,,,,
368,1427,,,,,
359,1437,,,,,
348,1448,,,,,
337,1459,,,,,
331,1469,,,,,
327,1479,,,,,
327,1489,,,,,
329,1500,,,,,
330,1511,,,,,
330,1521,,,,,
330,1531,,,,,
332,1542,,,,,
328,1552,,,,,
329,1562,,,,,
328,1572,,,,,
327,1584,,,,,
324,1594,,,,,
323,1604,,,,,
323,1614,,,,,
324,1625,,,,,
322,1635,,,,,
322,1646,,,,,
321,1656,,,,,
323,1667,,,,,
321,1677,,,,,
322,1687,,,,,
322,1697,,,,,
322,1709,,,,,
323,1719,,,,,
334,1729,,,,,
338,1739,,,,,
338,1750,,,,,
337,1760,,,,,
328,1770,,,,,
326,1781,,,,,
323,1792,,,,,
324,1802,,,,,
325,1812,,,,,
324,1822,,,,,
292,1832,,,,,
356,1844,,,,,
593,1854,,,,,
566,1864,,,,,
244,1874,,,,,
231,1885,,,,,
287,1895,,,,,
307,1905,,,,,
309,1916,,,,,
317,1927,,,,,
324,1937,,,,,
328,1947,,,,,
330,1957,,,,,
337,1968,,,,,
342,1979,,,,,
347,1989,,,,,
354,1999,,,,,
361,2010,,,,,
369,2020,,,,,
373,2030,,,,,
375,2041,,,,,
373,2052,,,,,
371,2062,,,,,
368,2072,,,,,
366,2082,,,,,
355,2093,,,,,
340,2103,,,,,
323,2114,,,,,
313,2124,,,,,
308,2135,,,,,
307,2145,,,,,
306,2155,,,,,
309,2165,,,,,
313,2177,,,,,
315,2187,,,,,
315,2197,,,,,
315,2207,,,,,
313,2217,,,,,
313,2228,,,,,
311,2238,,,,,
309,2249,,,,,
309,2259,,,,,
308,2270,,,,,
308,2280,,,,,
306,2290,,,,,
307,2300,,,,,
307,2312,,,,,
308,2322,,,,,
306,2332,,,,,
309,2342,,,,,
311,2353,,,,,
309,2363,,,,,
314,2374,,,,,
329,2384,,,,,
328,2395,,,,,
326,2405,,,,,
314,2415,,,,,
311,2425,,,,,
311,2436,,,,,
313,2447,,,,,
311,2457,,,,,
312,2467,,,,,
285,2478,,,,,
349,2488,,,,,
583,2498,,,,,
562,2509,,,,,
243,2520,,,,,
223,2530,,,,,
278,2540,,,,,
296,2550,,,,,
302,2561,,,,,
304,2571,,,,,
313,2582,,,,,
317,2592,,,,,
325,2603,,,,,
327,2613,,,,,
335,2623,,,,,
340,2633,,,,,
349,2644,,,,,
357,2655,,,,,
365,2665,,,,,
371,2675,,,,,
376,2685,,,,,
375,2696,,,,,
373,2707,,,,,
369,2717,,,,,
365,2727,,,,,
353,2738,,,,,
339,2748,,,,,
324,2758,,,,,
313,2768,,,,,
309,2780,,,,,
311,2790,,,,,
313,2800,,,,,
314,2810,,,,,
317,2821,,,,,
318,2831,,,,,
319,2842,,,,,
318,2852,,,,,
318,2863,,,,,
317,2873,,,,,
320,2883,,,,,
317,2893,,,,,
319,2904,,,,,
318,2915,,,,,
317,2925,,,,,
316,2935,,,,,
318,2946,,,,,
319,2956,,,,,
318,2966,,,,,
318,2977,,,,,
331,2988,,,,,
337,2998,,,,,
332,3008,,,,,
323,3018,,,,,
318,3028,,,,,
316,3040,,,,,
317,3050,,,,,
318,3060,,,,,
319,3070,,,,,
299,3081,,,,,
327,3091,,,,,
548,3101,,,,,
612,3112,,,,,
295,3123,,,,,
222,3133,,,,,
279,3143,,,,,
303,3153,,,,,
308,3164,,,,,
312,3175,,,,,
319,3185,,,,,
323,3195,,,,,
329,3206,,,,,
334,3216,,,,,
341,3226,,,,,
348,3236,,,,,
356,3248,,,,,
362,3258,,,,,
372,3268,,,,,
378,3278,,,,,
382,3289,,,,,
381,3299,,,,,
378,3310,,,,,
375,3320,,,,,
368,3331,,,,,
360,3341,,,,,
344,3351,,,,,
329,3361,,,,,
316,3373,,,,,
313,3383,,,,,
310,3393,,,,,
313,3403,,,,,
314,3414,,,,,
316,3424,,,,,
317,3434,,,,,
321,3445,,,,,
319,3456,,,,,
320,3466,,,,,
319,3476,,,,,
318,3486,,,,,
318,3496,,,,,
316,3508,,,,,
319,3518,,,,,
319,3528,,,,,
319,3538,,,,,
314,3549,,,,,
323,3559,,,,,
336,3569,,,,,
339,3580,,,,,
331,3591,,,,,
323,3601,,,,,
318,3611,,,,,
318,3621,,,,,
317,3632,,,,,
318,3643,,,,,
315,3653,,,,,
295,3663,,,,,
343,3674,,,,,
573,3684,,,,,
594,3694,,,,,
273,3705,,,,,
229,3716,,,,,
285,3726,,,,,
302,3736,,,,,
309,3746,,,,,
317,3757,,,,,
321,3767,,,,,
325,3778,,,,,
330,3788,,,,,
337,3799,,,,,
341,3809,,,,,
349,3819,,,,,
355,3829,,,,,
366,3841,,,,,
372,3851,,,,,
381,3861,,,,,
382,3871,,,,,
384,3881,,,,,
379,3892,,,,,
377,3902,,,,,
370,3913,,,,,
362,3923,,,,,
347,3934,,,,,
334,3944,,,,,
322,3954,,,,,
320,3964,,,,,
320,3976,,,,,
321,3986,,,,,
324,3996,,,,,
325,4006,,,,,
327,4017,,,,,
327,4027,,,,,
328,4038,,,,,
325,4048,,,,,
323,4059,,,,,
325,4069,,,,,
326,4079,,,,,
322,4089,,,,,
325,4100,,,,,
322,4111,,,,,
325,4121,,,,,
335,4131,,,,,
342,4142,,,,,
340,4152,,,,,
332,4162,,,,,
322,4173,,,,,
321,4184,,,,,
321,4194,,,,,
325,4204,,,,,
322,4214,,,,,
311,4225,,,,,
307,4235,,,,,
493,4246,,,,,
657,4256,,,,,
386,4267,,,,,
216,4277,,,,,
266,4287,,,,,
304,4297,,,,,
312,4308,,,,,
316,4319,,,,,
322,4329,,,,,
331,4339,,,,,
334,4349,,,,,
342,4360,,,,,
347,4371,,,,,
357,4381,,,,,
360,4391,,,,,
369,4402,,,,,
378,4412,,,,,
387,4422,,,,,
389,4432,,,,,
391,4444,,,,,
391,4454,,,,,
391,4464,,,,,
387,4474,,,,,
379,4485,,,,,
362,4495,,,,,
343,4506,,,,,
330,4516,,,,,
326,4527,,,,,
326,4537,,,,,
324,4547,,,,,
327,4557,,,,,
328,4568,,,,,
331,4579,,,,,
329,4589,,,,,
329,4599,,,,,
328,4610,,,,,
329,4620,,,,,
328,4630,,,,,
327,4641,,,,,
324,4652,,,,,
329,4662,,,,,
337,4672,,,,,
342,4682,,,,,
335,4692,,,,,
326,4704,,,,,
319,4714,,,,,
317,4724,,,,,
316,4734,,,,,
318,4745,,,,,
315,4755,,,,,
303,4765,,,,,
303,4776,,,,,
491,4787,,,,,
634,4797,,,,,
353,4807,,,,,
209,4817,,,,,
263,4828,,,,,
300,4839,,,,,
303,4849,,,,,
313,4859,,,,,
317,4870,,,,,
323,4880,,,,,
327,4890,,,,,
331,4900,,,,,
333,4912,,,,,
341,4922,,,,,
346,4932,,,,,
355,4942,,,,,
362,4953,,,,,
371,4963,,,,,
375,4974,,,,,
376,4984,,,,,
375,4995,,,,,
372,5005,,,,,
369,5015,,,,,
360,5025,,,,,
345,5037,,,,,
326,5047,,,,,
317,5057,,,,,
312,5067,,,,,
314,5078,,,,,
314,5088,,,,,
318,5098,,,,,
316,5109,,,,,
319,5120,,,,,
318,5130,,,,,
317,5140,,,,,
316,5150,,,,,
317,5160,,,,,
316,5172,,,,,
315,5182,,,,,
324,5192,,,,,
331,5202,,,,,
330,5213,,,,,
326,5223,,,,,
317,5233,,,,,
313,5244,,,,,
310,5255,,,,,
312,5265,,,,,
311,5275,,,,,
310,5285,,,,,
290,5296,,,,,
316,5307,,,,,
538,5317,,,,,
606,5327,,,,,
303,5338,,,,,
225,5348,,,,,
279,5358,,,,,
298,5369,,,,,
304,5380,,,,,
308,5390,,,,,
314,5400,,,,,
317,5410,,,,,
323,5421,,,,,
326,5431,,,,,
334,5442,,,,,
338,5452,,,,,
344,5463,,,,,
351,5473,,,,,
361,5483,,,,,
365,5493,,,,,
366,5505,,,,,
365,5515,,,,,
363,5525,,,,,
363,5535,,,,,
358,5545,,,,,
351,5556,,,,,
339,5566,,,,,
327,5577,,,,,
318,5587,,,,,
319,5598,,,,,
320,5608,,,,,
323,5618,,,,,
323,5628,,,,,
325,5640,,,,,
323,5650,,,,,
323,5660,,,,,
321,5670,,,,,
326,5681,,,,,
323,5691,,,,,
321,5702,,,,,
327,5712,,,,,
339,5723,,,,,
338,5733,,,,,
337,5743,,,,,
327,5753,,,,,
319,5764,,,,,
319,5775,,,,,
320,5785,,,,,
321,5795,,,,,
323,5806,,,,,
312,5816,,,,,
295,5826,,,,,
452,5837,,,,,
656,5848,,,,,
439,5858,,,,,
221,5868,,,,,
267,5878,,,,,
306,5889,,,,,
316,5899,,,,,
318,5910,,,,,
323,5920,,,,,
326,5931,,,,,
334,5941,,,,,
337,5951,,,,,
343,5961,,,,,
348,5972,,,,,
355,5983,,,,,
362,5993,,,,,
370,6003,,,,,
373,6013,,,,,
377,6024,,,,,
375,6035,,,,,
375,6045,,,,,
374,6055,,,,,
372,6066,,,,,
366,6076,,,,,
355,6086,,,,,
340,6096,,,,,
327,6108,,,,,
325,6118,,,,,
321,6128,,,,,
323,6138,,,,,
323,6149,,,,,
325,6159,,,,,
324,6170,,,,,
325,6180,,,,,
322,6191,,,,,
323,6201,,,,,
322,6211,,,,,
320,6221,,,,,
325,6232,,,,,
335,6243,,,,,
336,6253,,,,,
332,6263,,,,,
320,6274,,,,,
313,6284,,,,,
312,6294,,,,,
312,6305,,,,,
313,6316,,,,,
312,6326,,,,,
305,6336,,,,,
280,6346,,,,,
418,6356,,,,,
624,6368,,,,,
444,6378,,,,,
216,6388,,,,,
256,6398,,,,,
295,6409,,,,,
305,6419,,,,,
307,6429,,,,,
313,6440,,,,,
316,6451,,,,,
324,6461,,,,,
326,6471,,,,,
333,6481,,,,,
336,6492,,,,,
343,6503,,,,,
349,6513,,,,,
359,6523,,,,,
363,6534,,,,,
364,6544,,,,,
365,6554,,,,,
361,6564,,,,,
360,6576,,,,,
359,6586,,,,,
355,6596,,,,,
343,6606,,,,,
332,6617,,,,,
321,6627,,,,,
320,6638,,,,,
317,6648,,,,,
318,6659,,,,,
317,6669,,,,,
321,6679,,,,,
318,6689,,,,,
320,6701,,,,,
317,6711,,,,,
318,6721,,,,,
314,6731,,,,,
311,6742,,,,,
317,6752,,,,,
329,6762,,,,,
331,6773,,,,,
327,6784,,,,,
319,6794,,,,,
315,6804,,,,,
311,6814,,,,,
309,6824,,,,,
311,6836,,,,,
313,6846,,,,,
310,6856,,,,,
279,6866,,,,,
386,6877,,,,,
618,6887,,,,,
507,6897,,,,,
236,6908,,,,,
252,6919,,,,,
295,6929,,,,,
309,6939,,,,,
313,6949,,,,,
322,6960,,,,,
323,6971,,,,,
331,6981,,,,,
334,6991,,,,,
341,7002,,,,,
343,7012,,,,,
349,7022,,,,,
358,7033,,,,,
366,7044,,,,,
369,7054,,,,,
375,7064,,,,,
376,7074,,,,,
369,7085,,,,,
371,7095,,,,,
371,7106,,,,,
368,7116,,,,,
357,7127,,,,,
345,7137,,,,,
333,7147,,,,,
332,7157,,,,,
330,7169,,,,,
335,7179,,,,,
335,7189,,,,,
336,7199,,,,,
335,7209,,,,,
335,7220,,,,,
333,7230,,,,,
335,7241,,,,,
335,7251,,,,,
333,7262,,,,,
331,7272,,,,,
342,7282,,,,,
348,7292,,,,,
348,7304,,,,,
343,7314,,,,,
333,7324,,,,,
330,7334,,,,,
328,7345,,,,,
331,7355,,,,,
330,7366,,,,,
333,7376,,,,,
316,7387,,,,,
330,7397,,,,,
526,7407,,,,,
628,7417,,,,,
338,7428,,,,,
225,7439,,,,,
288,7449,,,,,
320,7459,,,,,
325,7470,,,,,
331,7480,,,,,
333,7490,,,,,
339,7501,,,,,
344,7512,,,,,
345,7522,,,,,
350,7532,,,,,
358,7542,,,,,
363,7553,,,,,
368,7563,,,,,
375,7574,,,,,
380,7584,,,,,
380,7595,,,,,
378,7605,,,,,
376,7615,,,,,
379,7625,,,,,
381,7636,,,,,
373,7647,,,,,
359,7657,,,,,
343,7667,,,,,
337,7677,,,,,
334,7688,,,,,
336,7699,,,,,
336,7709,,,,,
337,7719,,,,,
337,7730,,,,,
338,7740,,,,,
334,7750,,,,,
334,7760,,,,,
333,7772,,,,,
331,7782,,,,,
331,7792,,,,,
340,7802,,,,,
344,7813,,,,,
341,7823,,,,,
336,7834,,,,,
325,7844,,,,,
321,7855,,,,,
319,7865,,,,,
321,7875,,,,,
321,7885,,,,,
324,7896,,,,,
307,7907,,,,,
340,7917,,,,,
531,7927,,,,,
552,7938,,,,,
262,7948,,,,,
219,7958,,,,,
284,7969,,,,,
307,7980,,,,,
313,7990,,,,,
319,8000,,,,,
323,8010,,,,,
329,8020,,,,,
333,8032,,,,,
336,8042,,,,,
341,8052,,,,,
346,8062,,,,,
351,8073,,,,,
355,8083,,,,,
359,8093,,,,,
361,8104,,,,,
363,8115,,,,,
362,8125,,,,,
361,8135,,,,,
362,8145,,,,,
363,8156,,,,,
351,8167,,,,,
338,8177,,,,,
323,8187,,,,,
320,8198,,,,,
315,8208,,,,,
317,8218,,,,,
317,8228,,,,,
319,8240,,,,,
319,8250,,,,,
320,8260,,,,,
317,8270,,,,,
315,8281,,,,,
317,8291,,,,,
316,8302,,,,,
324,8312,,,,,
330,8323,,,,,
331,8333,,,,,
324,8343,,,,,
315,8353,,,,,
306,8365,,,,,
305,8375,,,,,
304,8385,,,,,
306,8395,,,,,
307,8406,,,,,
300,8416,,,,,
288,8426,,,,,
434,8437,,,,,
568,8448,,,,,
362,8458,,,,,
195,8468,,,,,
261,8478,,,,,
297,8488,,,,,
303,8500,,,,,
308,8510,,,,,
316,8520,,,,,
318,8530,,,,,
322,8541,,,,,
329,8551,,,,,
335,8561,,,,,
338,8572,,,,,
342,8583,,,,,
350,8593,,,,,
355,8603,,,,,
360,8613,,,,,
361,8624,,,,,
362,8635,,,,,
357,8645,,,,,
359,8655,,,,,
358,8666,,,,,
354,8676,,,,,
339,8686,,,,,
329,8697,,,,,
320,8708,,,,,
319,8718,,,,,
319,8728,,,,,
322,8738,,,,,
320,8749,,,,,
320,8759,,,,,
320,8770,,,,,
320,8780,,,,,
321,8791,,,,,
319,8801,,,,,
317,8811,,,,,
327,8821,,,,,
335,8833,,,,,
333,8843,,,,,
327,8853,,,,,
316,8863,,,,,
312,8873,,,,,
310,8884,,,,,
313,8894,,,,,
310,8905,,,,,
313,8915,,,,,
298,8926,,,,,
295,8936,,,,,
463,8946,,,,,
573,8956,,,,,
331,8968,,,,,
215,8978,,,,,
277,8988,,,,,
302,8998,,,,,
307,9009,,,,,
315,9019,,,,,
317,9030,,,,,
322,9040,,,,,
328,9051,,,,,
331,9061,,,,,
336,9071,,,,,
343,9081,,,,,
348,9092,,,,,
353,9103,,,,,
359,9113,,,,,
362,9123,,,,,
363,9134,,,,,
360,9144,,,,,
358,9154,,,,,
358,9165,,,,,
361,9176,,,,,
353,9186,,,,,
344,9196,,,,,
329,9206,,,,,
326,9217,,,,,
323,9227,,,,,
325,9238,,,,,
325,9248,,,,,
329,9259,,,,,
329,9269,,,,,
327,9279,,,,,
327,9289,,,,,
326,9300,,,,,
323,9311,,,,,
329,9321,,,,,
338,9331,,,,,
338,9341,,,,,
337,9352,,,,,
326,9363,,,,,
319,9373,,,,,
315,9383,,,,,
316,9394,,,,,
315,9404,,,,,
316,9414,,,,,
309,9424,,,,,
283,9436,,,,,
380,9446,,,,,
583,9456,,,,,
466,9466,,,,,
226,9477,,,,,
257,9487,,,,,
301,9498,,,,,
308,9508,,,,,
314,9519,,,,,
319,9529,,,,,
324,9539,,,,,
327,9549,,,,,
332,9560,,,,,
336,9571,,,,,
342,9581,,,,,
348,9591,,,,,
353,9602,,,,,
359,9612,,,,,
363,9622,,,,,
363,9633,,,,,
360,9644,,,,,
360,9654,,,,,
358,9664,,,,,
361,9674,,,,,
355,9684,,,,,
346,9696,,,,,
333,9706,,,,,
327,9716,,,,,
323,9726,,,,,
326,9737,,,,,
326,9747,,,,,
328,9757,,,,,
327,9768,,,,,
329,9779,,,,,
328,9789,,,,,
327,9799,,,,,
322,9809,,,,,
323,9820,,,,,
335,9831,,,,,
341,9841,,,,,
339,9851,,,,,
331,9862,,,,,
321,9872,,,,,
315,9882,,,,,
316,9892,,,,,
316,9904,,,,,
316,9914,,,,,
317,9924,,,,,
297,9934,,,,,
302,9945,,,,,
497,9955,,,,,
572,9966,,,,,
313,9976,,,,,
229,9987,,,,,
291,9997,,,,,
309,10007,,,,,
313,10018,,,,,
319,10031,,,,,
323,10042,,,,,
331,10053,,,,,
334,10064,,,,,
340,10076,,,,,
343,10087,,,,,
352,10099,,,,,
358,10110,,,,,
364,10122,,,,,
365,10133,,,,,
360,10144,,,,,
360,10156,,,,,
361,10168,,,,,
363,10179,,,,,
357,10190,,,,,
344,10202,,,,,
333,10213,,,,,
326,10224,,,,,
326,10236,,,,,
326,10248,,,,,
328,10259,,,,,
331,10270,,,,,
328,10281,,,,,
331,10293,,,,,
327,10305,,,,,
325,10316,,,,,
331,10328,,,,,
342,10339,,,,,
342,10350,,,,,
331,10362,,,,,
324,10374,,,,,
318,10385,,,,,
319,10396,,,,,
321,10407,,,,,
321,10419,,,,,
313,10431,,,,,
285,10442,,,,,
443,10454,,,,,
591,10465,,,,,
308,10476,,,,,
220,10487,,,,,
295,10500,,,,,
317,10511,,,,,
320,10522,,,,,
328,10533,,,,,
333,10545,,,,,
337,10556,,,,,
342,10568,,,,,
348,10579,,,,,
354,10591,,,,,
360,10602,,,,,
368,10613,,,,,
367,10625,,,,,
373,10637,,,,,
372,10648,,,,,
372,10659,,,,,
375,10671,,,,,
376,10682,,,,,
368,10694,,,,,
346,10705,,,,,
333,10717,,,,,
326,10728,,,,,
325,10739,,,,,
328,10750,,,,,
326,10763,,,,,
330,10774,,,,,
326,10785,,,,,
327,10797,,,,,
325,10808,,,,,
325,10819,,,,,
333,10831,,,,,
336,10843,,,,,
332,10854,,,,,
320,10865,,,,,
316,10876,,,,,
313,10888,,,,,
311,10900,,,,,
310,10911,,,,,
311,10923,,,,,
295,10934,,,,,
326,10945,,,,,
551,10956,,,,,
474,10969,,,,,
196,10980,,,,,
249,10991,,,,,
300,11002,,,,,
310,11014,,,,,
314,11025,,,,,
320,11037,,,,,
327,11048,,,,,
331,11060,,,,,
338,11071,,,,,
341,11082,,,,,
347,11095,,,,,
353,11106,,,,,
359,11117,,,,,
361,11128,,,,,
362,11140,,,,,
362,11151,,,,,
364,11163,,,,,
371,11174,,,,,
363,11186,,,,,
345,11197,,,,,
326,11208,,,,,
314,11219,,,,,
314,11232,,,,,
311,11243,,,,,
314,11254,,,,,
316,11266,,,,,
318,11277,,,,,
319,11288,,,,,
318,11300,,,,,
316,11312,,,,,
322,11323,,,,,
329,11334,,,,,
325,11345,,,,,
316,11357,,,,,
308,11369,,,,,
304,11380,,,,,
303,11392,,,,,
302,11403,,,,,
305,11414,,,,,
295,11426,,,,,
294,11438,,,,,
480,11449,,,,,
505,11460,,,,,
216,11471,,,,,
224,11483,,,,,
295,11495,,,,,
304,11506,,,,,
308,11517,,,,,
315,11529,,,,,
320,11540,,,,,
326,11551,,,,,
330,11564,,,,,
337,11575,,,,,
345,11586,,,,,
351,11597,,,,,
359,11609,,,,,
361,11620,,,,,
361,11632,,,,,
357,11643,,,,,
360,11655,,,,,
360,11666,,,,,
359,11677,,,,,
346,11688,,,,,
329,11701,,,,,
322,11712,,,,,
314,11723,,,,,
314,11735,,,,,
318,11746,,,,,
318,11757,,,,,
320,11769,,,,,
320,11781,,,,,
321,11792,,,,,
318,11803,,,,,
327,11814,,,,,
331,11827,,,,,
331,11838,,,,,
323,11849,,,,,
313,11860,,,,,
310,11872,,,,,
307,11883,,,,,
311,11895,,,,,
310,11907,,,,,
302,11918,,,,,
281,11929,,,,,
451,11940,,,,,
585,11952,,,,,
298,11964,,,,,
225,11975,,,,,
290,11986,,,,,
305,11998,,,,,
311,12009,,,,,
316,12020,,,,,
323,12033,,,,,
330,12044,,,,,
334,12055,,,,,
339,12066,,,,,
346,12078,,,,,
352,12089,,,,,
357,12101,,,,,
364,12112,,,,,
364,12124,,,,,
364,12135,,,,,
361,12146,,,,,
364,12158,,,,,
365,12170,,,,,
356,12181,,,,,
339,12192,,,,,
325,12204,,,,,
323,12215,,,,,
322,12227,,,,,
323,12238,,,,,
326,12250,,,,,
326,12261,,,,,
329,12272,,,,,
325,12283,,,,,
322,12296,,,,,
331,12307,,,,,
340,12318,,,,,
339,12329,,,,,
328,12341,,,,,
321,12352,,,,,
316,12364,,,,,
316,12376,,,,,
315,12387,,,,,
317,12398,,,,,
312,12409,,,,,
282,12421,,,,,
441,12433,,,,,
590,12444,,,,,
326,12455,,,,,
231,12467,,,,,
297,12478,,,,,
314,12489,,,,,
318,12502,,,,,
326,12513,,,,,
328,12524,,,,,
336,12535,,,,,
340,12547,,,,,
344,12559,,,,,
351,12570,,,,,
356,12581,,,,,
364,12593,,,,,
368,12604,,,,,
373,12615,,,,,
370,12627,,,,,
367,12639,,,,,
367,12650,,,,,
363,12661,,,,,
354,12673,,,,,
341,12684,,,,,
332,12696,,,,,
331,12707,,,,,
336,12719,,,,,
337,12730,,,,,
334,12741,,,,,
338,12752,,,,,
336,12765,,,,,
339,12776,,,,,
337,12787,,,,,
344,12798,,,,,
352,12810,,,,,
351,12821,,,,,
344,12833,,,,,
332,12845,,,,,
329,12856,,,,,
329,12867,,,,,
330,12878,,,,,
333,12891,,,,,
328,12902,,,,,
301,12913,,,,,
439,12924,,,,,
627,12936,,,,,
368,12947,,,,,
240,12959,,,,,
304,12971,,,,,
323,12982,,,,,
333,12993,,,,,
334,13004,,,,,
338,13016,,,,,
342,13028,,,,,
347,13039,,,,,
358,13050,,,,,
359,13062,,,,,
365,13073,,,,,
373,13084,,,,,
375,13096,,,,,
378,13108,,,,,
374,13119,,,,,
376,13130,,,,,
376,13142,,,,,
376,13153,,,,,
367,13165,,,,,
352,13176,,,,,
337,13188,,,,,
332,13199,,,,,
334,13210,,,,,
331,13221,,,,,
334,13234,,,,,
333,13245,,,,,
336,13256,,,,,
333,13267,,,,,
328,13279,,,,,
337,13291,,,,,
344,13302,,,,,
344,13314,,,,,
336,13325,,,,,
322,13336,,,,,
319,13347,,,,,
316,13360,,,,,
320,13371,,,,,
315,13382,,,,,
314,13393,,,,,
286,13405,,,,,
393,13416,,,,,
590,13428,,,,,
378,13440,,,,,
215,13451,,,,,
282,13462,,,,,
307,13473,,,,,
309,13485,,,,,
316,13497,,,,,
324,13508,,,,,
327,13519,,,,,
333,13531,,,,,
335,13542,,,,,
342,13553,,,,,
345,13565,,,,,
351,13577,,,,,
358,13588,,,,,
359,13599,,,,,
360,13611,,,,,
357,13623,,,,,
357,13634,,,,,
357,13645,,,,,
349,13657,,,,,
334,13668,,,,,
320,13679,,,,,
315,13691,,,,,
313,13703,,,,,
317,13714,,,,,
316,13725,,,,,
317,13736,,,,,
320,13748,,,,,
320,13760,,,,,
317,13771,,,,,
325,13783,,,,,
333,13794,,,,,
331,13805,,,,,
322,13816,,,,,
314,13829,,,,,
307,13840,,,,,
307,13851,,,,,
304,13862,,,,,
308,13874,,,,,
302,13885,,,,,
275,13897,,,,,
405,13908,,,,,
575,13920,,,,,
341,13931,,,,,
215,13942,,,,,
284,13954,,,,,
303,13966,,,,,
307,13977,,,,,
314,13988,,,,,
318,14000,,,,,
324,14011,,,,,
327,14023,,,,,
335,14034,,,,,
340,14046,,,,,
347,14057,,,,,
353,14068,,,,,
355,14080,,,,,
361,14092,,,,,
359,14103,,,,,
358,14114,,,,,
359,14126,,,,,
357,14137,,,,,
349,14148,,,,,
331,14160,,,,,
321,14172,,,,,
317,14183,,,,,
318,14194,,,,,
319,14205,,,,,
320,14217,,,,,
320,14229,,,,,
320,14240,,,,,
321,14252,,,,,
315,14263,,,,,
325,14274,,,,,
333,14285,,,,,
331,14298,,,,,
325,14309,,,,,
314,14320,,,,,
311,14331,,,,,
309,14343,,,,,
309,14355,,,,,
310,14366,,,,,
308,14377,,,,,
276,14389,,,,,
382,14400,,,,,
589,14411,,,,,
387,14424,,,,,
227,14435,,,,,
288,14446,,,,,
309,14457,,,,,
317,14469,,,,,
320,14480,,,,,
330,14492,,,,,
332,14503,,,,,
337,14515,,,,,
341,14526,,,,,
347,14537,,,,,
356,14548,,,,,
359,14561,,,,,
367,14572,,,,,
369,14583,,,,,
368,14595,,,,,
365,14606,,,,,
365,14617,,,,,
366,14629,,,,,
354,14641,,,,,
344,14652,,,,,
331,14663,,,,,
327,14674,,,,,
327,14686,,,,,
329,14698,,,,,
331,14709,,,,,
328,14721,,,,,
332,14732,,,,,
333,14743,,,,,
328,14755,,,,,
330,14767,,,,,
341,14778,,,,,
344,14789,,,,,
336,14800,,,,,
327,14812,,,,,
321,14824,,,,,
318,14835,,,,,
318,14846,,,,,
316,14858,,,,,
318,14869,,,,,
290,14880,,,,,
326,14893,,,,,
558,14904,,,,,
506,14915,,,,,
241,14926,,,,,
274,14938,,,,,
311,14949,,,,,
312,14961,,,,,
319,14972,,,,,
325,14984,,,,,
330,14995,,,,,
335,15006,,,,,
337,15017,,,,,
345,15030,,,,,
349,15041,,,,,
358,15052,,,,,
363,15064,,,,,
366,15075,,,,,
367,15087,,,,,
362,15098,,,,,
362,15110,,,,,
359,15121,,,,,
356,15132,,,,,
342,15143,,,,,
330,15156,,,,,
324,15167,,,,,
321,15178,,,,,
327,15190,,,,,
329,15201,,,,,
329,15212,,,,,
327,15224,,,,,
327,15236,,,,,
331,15247,,,,,
326,15258,,,,,
332,15269,,,,,
341,15281,,,,,
343,15293,,,,,
334,15304,,,,,
322,15315,,,,,
317,15327,,,,,
316,15338,,,,,
320,15349,,,,,
318,15362,,,,,
319,15373,,,,,
288,15384,,,,,
342,15395,,,,,
582,15407,,,,,
479,15418,,,,,
235,15430,,,,,
275,15441,,,,,
309,15453,,,,,
314,15464,,,,,
321,15475,,,,,
327,15488,,,,,
331,15499,,,,,
339,15510,,,,,
340,15521,,,,,
349,15533,,,,,
355,15544,,,,,
362,15556,,,,,
368,15567,,,,,
371,15579,,,,,
371,15590,,,,,
366,15601,,,,,
369,15612,,,,,
369,15625,,,,,
363,15636,,,,,
354,15647,,,,,
335,15659,,,,,
326,15670,,,,,
326,15681,,,,,
328,15693,,,,,
331,15705,,,,,
334,15716,,,,,
337,15727,,,,,
333,15738,,,,,
336,15750,,,,,
330,15762,,,,,
328,15773,,,,,
340,15784,,,,,
346,15796,,,,,
344,15807,,,,,
333,15819,,,,,
325,15831,,,,,
321,15842,,,,,
323,15853,,,,,
323,15864,,,,,
323,15876,,,,,
315,15888,,,,,
296,15899,,,,,
485,15910,,,,,
580,15922,,,,,
271,15933,,,,,
238,15944,,,,,
303,15956,,,,,
320,15968,,,,,
323,15979,,,,,
329,15990,,,,,
333,16002,,,,,
339,16013,,,,,
344,16025,,,,,
349,16036,,,,,
360,16048,,,,,
365,16059,,,,,
371,16070,,,,,
375,16081,,,,,
375,16094,,,,,
374,16105,,,,,
373,16116,,,,,
377,16128,,,,,
372,16139,,,,,
362,16150,,,,,
343,16162,,,,,
329,16174,,,,,
325,16185,,,,,
325,16196,,,,,
328,16207,,,,,
327,16220,,,,,
329,16231,,,,,
326,16242,,,,,
329,16253,,,,,
330,16265,,,,,
324,16276,,,,,
329,16288,,,,,
336,16300,,,,,
337,16311,,,,,
329,16322,,,,,
317,16333,,,,,
312,16345,,,,,
313,16357,,,,,
314,16368,,,,,
311,16379,,,,,
312,16391,,,,,
285,16402,,,,,
350,16413,,,,,
582,16425,,,,,
439,16437,,,,,
208,16448,,,,,
265,16459,,,,,
304,16471,,,,,
307,16482,,,,,
312,16494,,,,,
319,16505,,,,,
323,16517,,,,,
328,16528,,,,,
335,16539,,,,,
342,16551,,,,,
348,16563,,,,,
353,16574,,,,,
363,16585,,,,,
361,16596,,,,,
365,16608,,,,,
360,16620,,,,,
363,16631,,,,,
363,16643,,,,,
355,16654,,,,,
342,16665,,,,,
325,16676,,,,,
318,16689,,,,,
316,16700,,,,,
321,16711,,,,,
321,16722,,,,,
321,16734,,,,,
324,16745,,,,,
323,16757,,,,,
326,16769,,,,,
318,16780,,,,,
322,16791,,,,,
331,16802,,,,,
335,16814,,,,,
329,16826,,,,,
317,16837,,,,,
312,16848,,,,,
309,16860,,,,,
310,16871,,,,,
310,16882,,,,,
310,16894,,,,,
289,16906,,,,,
317,16917,,,,,
542,16928,,,,,
495,16940,,,,,
226,16952,,,,,
259,16963,,,,,
300,16974,,,,,
309,16986,,,,,
311,16997,,,,,
320,17008,,,,,
326,17020,,,,,
330,17032,,,,,
335,17043,,,,,
340,17054,,,,,
348,17065,,,,,
355,17077,,,,,
363,17089,,,,,
362,17100,,,,,
364,17112,,,,,
359,17123,,,,,
360,17134,,,,,
364,17145,,,,,
354,17158,,,,,
345,17169,,,,,
328,17180,,,,,
323,17191,,,,,
322,17203,,,,,
320,17214,,,,,
322,17226,,,,,
324,17238,,,,,
328,17249,,,,,
327,17260,,,,,
331,17271,,,,,
324,17284,,,,,
328,17295,,,,,
341,17306,,,,,
340,17317,,,,,
336,17329,,,,,
323,17340,,,,,
318,17352,,,,,
319,17363,,,,,
318,17375,,,,,
319,17386,,,,,
317,17397,,,,,
295,17409,,,,,
350,17421,,,,,
583,17432,,,,,
462,17443,,,,,
216,17455,,,,,
275,17466,,,,,
312,17477,,,,,
321,17489,,,,,
322,17501,,,,,
330,17512,,,,,
335,17523,,,,,
341,17534,,,,,
348,17546,,,,,
354,17558,,,,,
359,17569,,,,,
366,17581,,,,,
371,17592,,,,,
376,17603,,,,,
376,17614,,,,,
376,17627,,,,,
373,17638,,,,,
374,17649,,,,,
365,17660,,,,,
350,17672,,,,,
335,17684,,,,,
327,17695,,,,,
329,17707,,,,,
327,17718,,,,,
330,17729,,,,,
331,17740,,,,,
332,17753,,,,,
334,17764,,,,,
332,17775,,,,,
330,17786,,,,,
336,17798,,,,,
345,17809,,,,,
343,17821,,,,,
335,17832,,,,,
325,17844,,,,,
319,17855,,,,,
321,17866,,,,,
321,17878,,,,,
321,17890,,,,,
317,17901,,,,,
294,17912,,,,,
421,17924,,,,,
599,17935,,,,,
349,17946,,,,,
216,17958,,,,,
290,17970,,,,,
313,17981,,,,,
317,17992,,,,,
324,18003,,,,,
326,18016,,,,,
335,18027,,,,,
340,18038,,,,,
346,18050,,,,,
353,18061,,,,,
358,18072,,,,,
367,18084,,,,,
369,18096,,,,,
372,18107,,,,,
369,18118,,,,,
369,18129,,,,,
372,18141,,,,,
371,18153,,,,,
356,18164,,,,,
337,18176,,,,,
324,18187,,,,,
317,18198,,,,,
317,18209,,,,,
317,18222,,,,,
320,18233,,,,,
321,18244,,,,,
320,18255,,,,,
324,18267,,,,,
317,18278,,,,,
322,18290,,,,,
332,18301,,,,,
334,18313,,,,,
326,18324,,,,,
314,18335,,,,,
308,18347,,,,,
305,18359,,,,,
308,18370,,,,,
309,18381,,,,,
305,18393,,,,,
285,18404,,,,,
325,18416,,,,,
540,18427,,,,,
454,18439,,,,,
209,18450,,,,,
260,18461,,,,,
298,18472,,,,,
306,18485,,,,,
310,18496,,,,,
320,18507,,,,,
324,18519,,,,,
330,18530,,,,,
333,18541,,,,,
337,18553,,,,,
345,18565,,,,,
351,18576,,,,,
358,18587,,,,,
360,18598,,,,,
362,18610,,,,,
358,18622,,,,,
360,18633,,,,,
361,18644,,,,,
350,18656,,,,,
338,18667,,,,,
323,18678,,,,,
318,18691,,,,,
315,18702,,,,,
316,18713,,,,,
321,18724,,,,,
320,18736,,,,,
323,18748,,,,,
323,18759,,,,,
319,18770,,,,,
324,18782,,,,,
332,18793,,,,,
336,18804,,,,,
327,18817,,,,,
317,18828,,,,,
307,18839,,,,,
310,18850,,,,,
310,18862,,,,,
309,18873,,,,,
311,18885,,,,,
279,18896,,,,,
325,18908,,,,,
549,18919,,,,,
469,18930,,,,,
227,18941,,,,,
271,18954,,,,,
303,18965,,,,,
306,18976,,,,,
314,18988,,,,,
320,18999,,,,,
327,19010,,,,,
330,19022,,,,,
334,19034,,,,,
342,19045,,,,,
346,19056,,,,,
354,19067,,,,,
359,19079,,,,,
363,19091,,,,,
362,19102,,,,,
357,19113,,,,,
359,19125,,,,,
356,19136,,,,,
350,19148,,,,,
338,19160,,,,,
324,19171,,,,,
320,19182,,,,,
318,19193,,,,,
322,19205,,,,,
323,19217,,,,,
324,19228,,,,,
325,19239,,,,,
326,19251,,,,,
321,19262,,,,,
325,19273,,,,,
338,19286,,,,,
338,19297,,,,,
333,19308,,,,,
322,19319,,,,,
315,19331,,,,,
315,19342,,,,,
315,19354,,,,,
316,19365,,,,,
315,19377,,,,,
287,19388,,,,,
331,19399,,,,,
559,19410,,,,,
470,19423,,,,,
229,19434,,,,,
277,19445,,,,,
309,19457,,,,,
315,19468,,,,,
319,19480,,,,,
325,19491,,,,,
333,19503,,,,,
333,19514,,,,,
340,19525,,,,,
345,19536,,,,,
354,19549,,,,,
361,19560,,,,,
364,19571,,,,,
369,19582,,,,,
369,19594,,,,,
366,19605,,,,,
365,19617,,,,,
367,19629,,,,,
360,19640,,,,,
344,19651,,,,,
336,19662,,,,,
326,19674,,,,,
328,19686,,,,,
326,19697,,,,,
329,19708,,,,,
330,19720,,,,,
332,19731,,,,,
335,19742,,,,,
328,19755,,,,,
334,19766,,,,,
343,19777,,,,,
344,19788,,,,,
336,19800,,,,,
325,19811,,,,,
321,19823,,,,,
319,19834,,,,,
321,19846,,,,,
320,19857,,,,,
320,19868,,,,,
288,19880,,,,,
345,19892,,,,,
578,19903,,,,,
447,19914,,,,,
224,19926,,,,,
278,19937,,,,,
313,19949,,,,,
318,19960,,,,,
321,19972,,,,,
329,19983,,,,,
333,19994,,,,,
341,20005,,,,,
345,20018,,,,,
351,20029,,,,,
358,20040,,,,,
365,20051,,,,,
373,20063,,,,,
375,20074,,,,,
375,20086,,,,,
373,20098,,,,,
375,20109,,,,,
376,20120,,,,,
364,20131,,,,,
347,20143,,,,,
332,20155,,,,,
327,20166,,,,,
324,20177,,,,,
327,20189,,,,,
329,20200,,,,,
330,20212,,,,,
332,20224,,,,,
333,20235,,,,,
331,20246,,,,,
334,20257,,,,,
343,20269,,,,,
345,20281,,,,,
334,20292,,,,,
325,20303,,,,,
317,20315,,,,,
317,20326,,,,,
316,20337,,,,,
317,20349,,,,,
318,20361,,,,,
284,20372,,,,,
352,20383,,,,,
576,20395,,,,,
420,20406,,,,,
201,20418,,,,,
272,20429,,,,,
308,20441,,,,,
314,20452,,,,,
321,20463,,,,,
326,20474,,,,,
331,20487,,,,,
336,20498,,,,,
341,20509,,,,,
347,20520,,,,,
352,20532,,,,,
362,20543,,,,,
364,20555,,,,,
369,20567,,,,,
367,20578,,,,,
366,20589,,,,,
369,20600,,,,,
366,20613,,,,,
354,20624,,,,,
335,20635,,,,,
321,20646,,,,,
312,20658,,,,,
312,20669,,,,,
315,20681,,,,,
317,20692,,,,,
317,20704,,,,,
317,20715,,,,,
321,20726,,,,,
315,20738,,,,,
319,20750,,,,,
330,20761,,,,,
327,20772,,,,,
319,20784,,,,,
307,20795,,,,,
305,20806,,,,,
303,20818,,,,,
303,20830,,,,,
303,20841,,,,,
299,20852,,,,,
266,20864,,,,,
336,20875,,,,,
557,20887,,,,,
400,20898,,,,,
207,20910,,,,,
271,20921,,,,,
294,20932,,,,,
300,20944,,,,,
304,20956,,,,,
311,20967,,,,,
316,20978,,,,,
322,20989,,,,,
329,21001,,,,,
334,21013,,,,,
342,21024,,,,,
345,21036,,,,,
351,21047,,,,,
353,21058,,,,,
351,21069,,,,,
353,21082,,,,,
351,21093,,,,,
351,21104,,,,,
340,21115,,,,,
324,21127,,,,,
313,21138,,,,,
305,21150,,,,,
307,21161,,,,,
308,21173,,,,,
312,21184,,,,,
315,21195,,,,,
316,21207,,,,,
317,21219,,,,,
311,21230,,,,,
322,21241,,,,,
328,21253,,,,,
331,21264,,,,,
320,21275,,,,,
313,21287,,,,,
307,21299,,,,,
307,21310,,,,,
307,21321,,,,,
306,21332,,,,,
305,21345,,,,,
273,21356,,,,,
352,21367,,,,,
578,21379,,,,,
414,21390,,,,,
224,21401,,,,,
281,21413,,,,,
308,21425,,,,,
311,21436,,,,,
318,21447,,,,,
325,21458,,,,,
330,21470,,,,,
337,21482,,,,,
341,21493,,,,,
350,21505,,,,,
356,21516,,,,,
364,21527,,,,,
370,21538,,,,,
373,21551,,,,,
372,21562,,,,,
369,21573,,,,,
372,21584,,,,,
367,21596,,,,,
355,21607,,,,,
343,21619,,,,,
329,21630,,,,,
325,21642,,,,,
325,21653,,,,,
329,21664,,,,,
328,21677,,,,,
329,21688,,,,,
332,21699,,,,,
333,21710,,,,,
330,21722,,,,,
333,21733,,,,,
343,21745,,,,,
344,21756,,,,,
337,21768,,,,,
327,21779,,,,,
320,21790,,,,,
321,21801,,,,,
318,21814,,,,,
320,21825,,,,,
321,21836,,,,,
297,21848,,,,,
342,21859,,,,,
568,21870,,,,,
458,21882,,,,,
209,21894,,,,,
271,21905,,,,,
311,21916,,,,,
320,21927,,,,,
325,21939,,,,,
329,21951,,,,,
338,21962,,,,,
341,21974,,,,,
347,21985,,,,,
352,21996,,,,,
357,22007,,,,,
366,22020,,,,,
371,22031,,,,,
378,22042,,,,,
375,22053,,,,,
373,22065,,,,,
374,22077,,,,,
374,22088,,,,,
361,22099,,,,,
342,22111,,,,,
327,22122,,,,,
317,22133,,,,,
317,22146,,,,,
317,22157,,,,,
318,22168,,,,,
321,22179,,,,,
322,22191,,,,,
325,22202,,,,,
324,22214,,,,,
321,22225,,,,,
328,22237,,,,,
337,22248,,,,,
335,22259,,,,,
324,22270,,,,,
318,22283,,,,,
310,22294,,,,,
313,22305,,,,,
310,22317,,,,,
312,22328,,,,,
310,22339,,,,,
277,22351,,,,,
379,22363,,,,,
578,22374,,,,,
378,22385,,,,,
213,22396,,,,,
281,22409,,,,,
306,22420,,,,,
309,22431,,,,,
315,22443,,,,,
320,22454,,,,,
327,22465,,,,,
333,22477,,,,,
337,22489,,,,,
345,22500,,,,,
350,22511,,,,,
357,22522,,,,,
361,22534,,,,,
365,22546,,,,,
364,22557,,,,,
363,22568,,,,,
363,22580,,,,,
358,22591,,,,,
349,22602,,,,,
330,22615,,,,,
320,22626,,,,,
315,22637,,,,,
313,22648,,,,,
317,22660,,,,,
317,22671,,,,,
320,22683,,,,,
319,22694,,,,,
323,22706,,,,,
322,22717,,,,,
316,22728,,,,,
324,22739,,,,,
332,22752,,,,,
334,22763,,,,,
325,22774,,,,,
317,22786,,,,,
311,22797,,,,,
310,22809,,,,,
312,22820,,,,,
309,22832,,,,,
311,22843,,,,,
288,22854,,,,,
323,22865,,,,,
550,22878,,,,,
487,22889,,,,,
232,22900,,,,,
266,22912,,,,,
303,22923,,,,,
308,22934,,,,,
314,22946,,,,,
318,22958,,,,,
324,22969,,,,,
331,22980,,,,,
334,22991,,,,,
343,23003,,,,,
349,23015,,,,,
355,23026,,,,,
361,23037,,,,,
364,23049,,,,,
365,23060,,,,,
361,23071,,,,,
363,23084,,,,,
359,23095,,,,,
353,23106,,,,,
339,23117,,,,,
324,23129,,,,,
320,23141,,,,,
318,23152,,,,,
321,23163,,,,,
322,23175,,,,,
324,23186,,,,,
324,23197,,,,,
324,23209,,,,,
325,23221,,,,,
326,23232,,,,,
323,23243,,,,,
328,23255,,,,,
339,23266,,,,,
340,23278,,,,,
331,23289,,,,,
324,23301,,,,,
318,23312,,,,,
318,23323,,,,,
318,23334,,,,,
319,23347,,,,,
321,23358,,,,,
299,23369,,,,,
336,23380,,,,,
558,23392,,,,,
504,23403,,,,,
242,23415,,,,,
278,23427,,,,,
311,23438,,,,,
315,23449,,,,,
325,23460,,,,,
327,23472,,,,,
335,23484,,,,,
341,23495,,,,,
347,23506,,,,,
353,23518,,,,,
360,23529,,,,,
369,23541,,,,,
376,23553,,,,,
379,23564,,,,,
380,23575,,,,,
378,23586,,,,,
377,23598,,,,,
375,23610,,,,,
367,23621,,,,,
350,23632,,,,,
340,23644,,,,,
330,23655,,,,,
330,23666,,,,,
333,23678,,,,,
331,23690,,,,,
336,23701,,,,,
336,23712,,,,,
339,23724,,,,,
337,23735,,,,,
335,23747,,,,,
337,23758,,,,,
331,23770,,,,,
342,23781,,,,,
351,23792,,,,,
351,23803,,,,,
339,23816,,,,,
332,23827,,,,,
329,23838,,,,,
328,23849,,,,,
328,23861,,,,,
328,23873,,,,,
328,23884,,,,,
301,23896,,,,,
426,23907,,,,,
622,23918,,,,,
370,23929,,,,,
224,23942,,,,,
294,23953,,,,,
323,23964,,,,,
327,23975,,,,,
332,23987,,,,,
336,23998,,,,,
341,24010,,,,,
347,24022,,,,,
351,24033,,,,,
360,24044,,,,,
368,24055,,,,,
374,24067,,,,,
380,24079,,,,,
383,24090,,,,,
384,24101,,,,,
381,24113,,,,,
381,24124,,,,,
376,24135,,,,,
360,24147,,,,,
343,24159,,,,,
328,24170,,,,,
323,24181,,,,,
318,24193,,,,,
321,24204,,,,,
321,24216,,,,,
325,24227,,,,,
325,24239,,,,,
325,24250,,,,,
329,24261,,,,,
325,24273,,,,,
321,24285,,,,,
326,24296,,,,,
336,24307,,,,,
336,24318,,,,,
324,24330,,,,,
318,24342,,,,,
312,24353,,,,,
313,24365,,,,,
313,24376,,,,,
311,24387,,,,,
311,24398,,,,,
284,24411,,,,,
384,24422,,,,,
581,24433,,,,,
382,24444,,,,,
207,24456,,,,,
275,24467,,,,,
304,24479,,,,,
307,24491,,,,,
314,24502,,,,,
319,24513,,,,,
325,24524,,,,,
331,24536,,,,,
337,24548,,,,,
342,24559,,,,,
345,24570,,,,,
356,24582,,,,,
363,24593,,,,,
368,24605,,,,,
366,24616,,,,,
364,24628,,,,,
365,24639,,,,,
358,24650,,,,,
345,24662,,,,,
328,24674,,,,,
316,24685,,,,,
309,24696,,,,,
306,24708,,,,,
309,24719,,,,,
309,24730,,,,,
312,24742,,,,,
312,24754,,,,,
314,24765,,,,,
317,24776,,,,,
314,24787,,,,,
314,24799,,,,,
323,24811,,,,,
329,24822,,,,,
327,24834,,,,,
316,24845,,,,,
307,24856,,,,,
305,24867,,,,,
306,24880,,,,,
303,24891,,,,,
305,24902,,,,,
299,24913,,,,,
275,24925,,,,,
426,24936,,,,,
566,24948,,,,,
314,24960,,,,,
220,24971,,,,,
286,24982,,,,,
299,24993,,,,,
305,25006,,,,,
310,25017,,,,,
314,25028,,,,,
322,25039,,,,,
326,25051,,,,,
331,25062,,,,,
336,25074,,,,,
345,25085,,,,,
353,25097,,,,,
358,25108,,,,,
359,25119,,,,,
358,25131,,,,,
356,25143,,,,,
355,25154,,,,,
350,25165,,,,,
338,25177,,,,,
322,25188,,,,,
314,25199,,,,,
307,25211,,,,,
309,25223,,,,,
311,25234,,,,,
311,25245,,,,,
314,25256,,,,,
315,25268,,,,,
316,25280,,,,,
318,25291,,,,,
315,25303,,,,,
317,25314,,,,,
329,25325,,,,,
333,25337,,,,,
325,25349,,,,,
317,25360,,,,,
309,25371,,,,,
309,25382,,,,,
311,25394,,,,,
311,25406,,,,,
313,25417,,,,,
296,25428,,,,,
298,25440,,,,,
502,25451,,,,,
533,25462,,,,,
253,25475,,,,,
256,25486,,,,,
304,25497,,,,,
308,25508,,,,,
315,25520,,,,,
319,25531,,,,,
325,25543,,,,,
331,25554,,,,,
336,25566,,,,,
344,25577,,,,,
350,25588,,,,,
358,25600,,,,,
364,25612,,,,,
369,25623,,,,,
369,25634,,,,,
368,25646,,,,,
368,25657,,,,,
365,25668,,,,,
356,25680,,,,,
342,25692,,,,,
329,25703,,,,,
320,25714,,,,,
318,25725,,,,,
322,25738,,,,,
324,25749,,,,,
328,25760,,,,,
327,25772,,,,,
328,25783,,,,,
331,25794,,,,,
330,25806,,,,,
329,25818,,,,,
330,25829,,,,,
343,25840,,,,,
345,25851,,,,,
343,25863,,,,,
331,25875,,,,,
323,25886,,,,,
323,25897,,,,,
322,25909,,,,,
324,25920,,,,,
324,25931,,,,,
313,25944,,,,,
319,25955,,,,,
521,25966,,,,,
546,25977,,,,,
249,25989,,,,,
256,26000,,,,,
312,26012,,,,,
319,26023,,,,,
326,26035,,,,,
333,26046,,,,,
339,26057,,,,,
341,26070,,,,,
348,26081,,,,,
353,26092,,,,,
362,26103,,,,,
368,26115,,,,,
376,26126,,,,,
384,26138,,,,,
382,26149,,,,,
381,26161,,,,,
379,26172,,,,,
378,26183,,,,,
370,26194,,,,,
350,26207,,,,,
335,26218,,,,,
324,26229,,,,,
322,26241,,,,,
322,26252,,,,,
323,26263,,,,,
325,26275,,,,,
323,26287,,,,,
326,26298,,,,,
326,26309,,,,,
329,26320,,,,,
323,26332,,,,,
332,26344,,,,,
338,26355,,,,,
340,26366,,,,,
329,26378,,,,,
319,26389,,,,,
316,26400,,,,,
315,26413,,,,,
315,26424,,,,,
315,26435,,,,,
311,26446,,,,,
288,26458,,,,,
364,26470,,,,,
577,26481,,,,,
411,26492,,,,,
208,26504,,,,,
276,26515,,,,,
308,26526,,,,,
315,26539,,,,,
318,26550,,,,,
325,26561,,,,,
331,26572,,,,,
336,26584,,,,,
343,26595,,,,,
347,26607,,,,,
357,26618,,,,,
361,26630,,,,,
369,26641,,,,,
372,26652,,,,,
374,26663,,,,,
372,26676,,,,,
370,26687,,,,,
366,26698,,,,,
351,26710,,,,,
337,26721,,,,,
321,26732,,,,,
314,26744,,,,,
315,26756,,,,,
314,26767,,,,,
319,26778,,,,,
319,26789,,,,,
320,26802,,,,,
321,26813,,,,,
323,26824,,,,,
319,26835,,,,,
323,26847,,,,,
333,26858,,,,,
333,26870,,,,,
329,26882,,,,,
318,26893,,,,,
310,26904,,,,,
311,26915,,,,,
309,26927,,,,,
312,26939,,,,,
311,26950,,,,,
292,26961,,,,,
315,26973,,,,,
527,26984,,,,,
486,26995,,,,,
224,27008,,,,,
263,27019,,,,,
303,27030,,,,,
309,27041,,,,,
316,27053,,,,,
320,27064,,,,,
328,27076,,,,,
330,27087,,,,,
338,27099,,,,,
341,27110,,,,,
348,27121,,,,,
356,27132,,,,,
362,27145,,,,,
370,27156,,,,,
368,27167,,,,,
367,27179,,,,,
364,27190,,,,,
361,27202,,,,,
351,27213,,,,,
335,27225,,,,,
323,27236,,,,,
313,27247,,,,,
315,27258,,,,,
314,27271,,,,,
314,27282,,,,,
317,27293,,,,,
318,27304,,,,,
322,27316,,,,,
321,27327,,,,,
320,27339,,,,,
318,27351,,,,,
329,27362,,,,,
332,27373,,,,,
328,27384,,,,,
319,27396,,,,,
310,27408,,,,,
310,27419,,,,,
308,27430,,,,,
307,27442,,,,,
309,27453,,,,,
295,27464,,,,,
284,27476,,,,,
476,27488,,,,,
556,27499,,,,,
267,27510,,,,,
242,27522,,,,,
294,27534,,,,,
302,27545,,,,,
308,27556,,,,,
312,27568,,,,,
321,27579,,,,,
327,27590,,,,,
329,27602,,,,,
337,27614,,,,,
343,27625,,,,,
354,27636,,,,,
359,27648,,,,,
368,27659,,,,,
366,27671,,,,,
365,27682,,,,,
365,27694,,,,,
363,27705,,,,,
359,27716,,,,,
341,27727,,,,,
329,27740,,,,,
321,27751,,,,,
319,27762,,,,,
320,27773,,,,,
320,27785,,,,,
322,27796,,,,,
322,27808,,,,,
327,27820,,,,,
328,27831,,,,,
330,27842,,,,,
327,27853,,,,,
335,27865,,,,,
342,27877,,,,,
339,27888,,,,,
332,27899,,,,,
322,27911,,,,,
317,27922,,,,,
320,27934,,,,,
319,27945,,,,,
322,27957,,,,,
318,27968,,,,,
292,27979,,,,,
367,27991,,,,,
595,28003,,,,,
431,28014,,,,,
209,28025,,,,,
275,28037,,,,,
308,28048,,,,,
316,28059,,,,,
321,28071,,,,,
325,28083,,,,,
332,28094,,,,,
337,28105,,,,,
343,28116,,,,,
347,28128,,,,,
358,28140,,,,,
363,28151,,,,,
369,28163,,,,,
375,28174,,,,,
374,28185,,,,,
374,28196,,,,,
371,28209,,,,,
369,28220,,,,,
358,28231,,,,,
337,28242,,,,,
323,28254,,,,,
313,28266,,,,,
313,28277,,,,,
313,28289,,,,,
317,28300,,,,,
318,28311,,,,,
320,28322,,,,,
324,28335,,,,,
322,28346,,,,,
323,28357,,,,,
323,28368,,,,,
331,28380,,,,,
334,28391,,,,,
327,28403,,,,,
318,28414,,,,,
308,28426,,,,,
309,28437,,,,,
309,28448,,,,,
309,28460,,,,,
310,28472,,,,,
292,28483,,,,,
307,28494,,,,,
517,28506,,,,,
502,28517,,,,,
217,28528,,,,,
246,28540,,,,,
299,28552,,,,,
306,28563,,,,,
315,28574,,,,,
317,28585,,,,,
321,28597,,,,,
325,28609,,,,,
333,28620,,,,,
339,28632,,,,,
345,28643,,,,,
355,28654,,,,,
361,28666,,,,,
369,28678,,,,,
369,28689,,,,,
367,28700,,,,,
366,28711,,,,,
363,28723,,,,,
355,28735,,,,,
337,28746,,,,,
321,28758,,,,,
313,28769,,,,,
308,28780,,,,,
307,28791,,,,,
308,28804,,,,,
314,28815,,,,,
313,28826,,,,,
317,28837,,,,,
319,28849,,,,,
318,28860,,,,,
320,28872,,,,,
326,28883,,,,,
329,28895,,,,,
324,28906,,,,,
318,28917,,,,,
309,28929,,,,,
308,28941,,,,,
308,28952,,,,,
306,28963,,,,,
308,28975,,,,,
297,28986,,,,,
288,28998,,,,,
477,29009,,,,,
541,29021,,,,,
255,29032,,,,,
240,29043,,,,,
299,29054,,,,,
306,29067,,,,,
315,29078,,,,,
320,29089,,,,,
327,29101,,,,,
333,29112,,,,,
337,29123,,,,,
344,29135,,,,,
349,29147,,,,,
358,29158,,,,,
366,29169,,,,,
372,29180,,,,,
375,29192,,,,,
373,29204,,,,,
372,29215,,,,,
369,29227,,,,,
362,29238,,,,,
347,29249,,,,,
328,29260,,,,,
319,29273,,,,,
315,29284,,,,,
316,29295,,,,,
317,29306,,,,,
322,29318,,,,,
322,29329,,,,,
322,29341,,,,,
326,29352,,,,,
323,29364,,,,,
321,29375,,,,,
330,29386,,,,,
338,29399,,,,,
334,29410,,,,,
326,29421,,,,,
319,29432,,,,,
311,29444,,,,,
316,29455,,,,,
312,29467,,,,,
315,29478,,,,,
311,29490,,,,,
281,29501,,,,,
390,29512,,,,,
597,29523,,,,,
394,29536,,,,,
224,29547,,,,,
285,29558,,,,,
306,29570,,,,,
310,29581,,,,,
317,29592,,,,,
322,29604,,,,,
330,29616,,,,,
334,29627,,,,,
342,29638,,,,,
348,29649,,,,,
356,29661,,,,,
366,29673,,,,,
372,29684,,,,,
380,29696,,,,,
381,29707,,,,,
379,29718,,,,,
376,29730,,,,,
369,29742,,,,,
358,29753,,,,,
341,29764,,,,,
332,29775,,,,,
327,29787,,,,,
327,29799,,,,,
327,29810,,,,,
331,29821,,,,,
333,29833,,,,,
332,29844,,,,,
337,29855,,,,,
338,29868,,,,,
337,29879,,,,,
338,29890,,,,,
349,29901,,,,,
350,29913,,,,,
345,29924,,,,,
338,29936,,,,,
331,29947,,,,,
330,29959,,,,,
329,29970,,,,,
330,29981,,,,,
332,29992,,,,,
322,30005,,,,,
309,30016,,,,,
480,30027,,,,,
586,30039,,,,,
290,30050,,,,,
238,30061,,,,,
305,30073,,,,,
319,30085,,,,,
326,30096,,,,,
331,30107,,,,,
336,30118,,,,,
341,30131,,,,,
345,30142,,,,,
351,30153,,,,,
356,30164,,,,,
367,30176,,,,,
373,30187,,,,,
378,30199,,,,,
381,30211,,,,,
382,30222,,,,,
382,30233,,,,,
378,30244,,,,,
369,30256,,,,,
351,30268,,,,,
335,30279,,,,,
324,30290,,,,,
318,30302,,,,,
321,30313,,,,,
317,30324,,,,,
319,30337,,,,,
323,30348,,,,,
325,30359,,,,,
328,30370,,,,,
330,30382,,,,,
331,30393,,,,,
330,30405,,,,,
339,30416,,,,,
335,30428,,,,,
334,30439,,,,,
324,30450,,,,,
322,30462,,,,,
322,30474,,,,,
314,30485,,,,,
318,30496,,,,,
317,30508,,,,,
296,30519,,,,,
313,30531,,,,,
529,30542,,,,,
522,30554,,,,,
237,30565,,,,,
257,30576,,,,,
306,30587,,,,,
312,30600,,,,,
317,30611,,,,,
326,30622,,,,,
331,30633,,,,,
335,30645,,,,,
341,30656,,,,,
345,30668,,,,,
351,30680,,,,,
363,30691,,,,,
372,30702,,,,,
377,30713,,,,,
374,30725,,,,,
373,30737,,,,,
372,30748,,,,,
371,30759,,,,,
360,30771,,,,,
342,30782,,,,,
325,30793,,,,,
317,30806,,,,,
316,30817,,,,,
317,30828,,,,,
316,30839,,,,,
320,30851,,,,,
317,30863,,,,,
320,30874,,,,,
323,30885,,,,,
325,30897,,,,,
319,30908,,,,,
326,30919,,,,,
335,30931,,,,,
331,30943,,,,,
324,30954,,,,,
321,30965,,,,,
316,30977,,,,,
316,30988,,,,,
315,31000,,,,,
315,31011,,,,,
312,31023,,,,,
284,31034,,,,,
378,31045,,,,,
590,31056,,,,,
420,31069,,,,,
227,31080,,,,,
283,31091,,,,,
307,31102,,,,,
313,31114,,,,,
317,31125,,,,,
324,31137,,,,,
329,31149,,,,,
328,31160,,,,,
337,31171,,,,,
345,31182,,,,,
357,31195,,,,,
362,31206,,,,,
365,31217,,,,,
372,31228,,,,,
375,31240,,,,,
372,31251,,,,,
369,31263,,,,,
363,31275,,,,,
348,31286,,,,,
334,31297,,,,,
324,31308,,,,,
321,31320,,,,,
321,31332,,,,,
319,31343,,,,,
321,31354,,,,,
321,31366,,,,,
328,31377,,,,,
330,31388,,,,,
329,31400,,,,,
330,31412,,,,,
324,31423,,,,,
336,31434,,,,,
343,31446,,,,,
345,31457,,,,,
334,31469,,,,,
325,31480,,,,,
325,31492,,,,,
323,31503,,,,,
321,31514,,,,,
321,31525,,,,,
315,31538,,,,,
292,31549,,,,,
453,31560,,,,,
597,31571,,,,,
331,31583,,,,,
250,31595,,,,,
302,31606,,,,,
314,31618,,,,,
320,31629,,,,,
326,31640,,,,,
330,31651,,,,,
333,31664,,,,,
340,31675,,,,,
347,31686,,,,,
356,31697,,,,,
368,31709,,,,,
372,31720,,,,,
382,31732,,,,,
381,31744,,,,,
382,31755,,,,,
381,31766,,,,,
381,31777,,,,,
375,31789,,,,,
360,31801,,,,,
344,31812,,,,,
332,31823,,,,,
325,31835,,,,,
325,31846,,,,,
329,31857,,,,,
334,31869,,,,,
333,31881,,,,,
335,31892,,,,,
337,31903,,,,,
339,31915,,,,,
334,31927,,,,,
339,31938,,,,,
348,31949,,,,,
351,31961,,,,,
343,31972,,,,,
336,31983,,,,,
330,31995,,,,,
328,32007,,,,,
328,32018,,,,,
329,32029,,,,,
326,32040,,,,,
312,32052,,,,,
336,32064,,,,,
551,32075,,,,,
509,32087,,,,,
211,32098,,,,,
253,32109,,,,,
314,32120,,,,,
325,32133,,,,,
332,32144,,,,,
340,32155,,,,,
342,32166,,,,,
349,32178,,,,,
353,32189,,,,,
357,32201,,,,,
369,32212,,,,,
376,32224,,,,,
387,32235,,,,,
394,32246,,,,,
397,32258,,,,,
394,32270,,,,,
391,32281,,,,,
389,32292,,,,,
377,32304,,,,,
359,32315,,,,,
343,32327,,,,,
330,32338,,,,,
321,32350,,,,,
321,32361,,,,,
323,32372,,,,,
325,32384,,,,,
327,32396,,,,,
330,32407,,,,,
330,32418,,,,,
335,32430,,,,,
334,32441,,,,,
342,32452,,,,,
343,32464,,,,,
334,32476,,,,,
322,32487,,,,,
313,32498,,,,,
312,32509,,,,,
312,32521,,,,,
311,32533,,,,,
312,32544,,,,,
300,32556,,,,,
293,32567,,,,,
472,32578,,,,,
517,32589,,,,,
221,32602,,,,,
217,32613,,,,,
290,32624,,,,,
306,32635,,,,,
311,32647,,,,,
320,32659,,,,,
325,32670,,,,,
328,32681,,,,,
334,32693,,,,,
342,32704,,,,,
347,32715,,,,,
357,32728,,,,,
365,32739,,,,,
375,32750,,,,,
376,32761,,,,,
374,32773,,,,,
374,32784,,,,,
368,32796,,,,,
361,32807,,,,,
343,32819,,,,,
325,32830,,,,,
312,32841,,,,,
307,32852,,,,,
307,32865,,,,,
312,32876,,,,,
311,32887,,,,,
314,32899,,,,,
318,32910,,,,,
320,32921,,,,,
317,32933,,,,,
322,32945,,,,,
328,32956,,,,,
331,32967,,,,,
322,32978,,,,,
309,32990,,,,,
305,33002,,,,,
304,33013,,,,,
305,33025,,,,,
304,33036,,,,,
303,33047,,,,,
276,33059,,,,,
334,33071,,,,,
547,33082,,,,,
438,33093,,,,,
202,33104,,,,,
261,33116,,,,,
301,33128,,,,,
305,33139,,,,,
312,33150,,,,,
315,33162,,,,,
323,33173,,,,,
330,33184,,,,,
335,33197,,,,,
341,33208,,,,,
350,33219,,,,,
359,33230,,,,,
367,33242,,,,,
375,33253,,,,,
375,33265,,,,,
375,33276,,,,,
374,33288,,,,,
370,33299,,,,,
358,33310,,,,,
339,33321,,,,,
333,33334,,,,,
323,33345,,,,,
320,33356,,,,,
323,33368,,,,,
325,33379,,,,,
329,33391,,,,,
331,33402,,,,,
333,33414,,,,,
329,33425,,,,,
333,33436,,,,,
341,33447,,,,,
346,33460,,,,,
346,33471,,,,,
333,33482,,,,,
325,33494,,,,,
322,33505,,,,,
325,33516,,,,,
324,33528,,,,,
321,33540,,,,,
317,33551,,,,,
299,33562,,,,,
472,33573,,,,,
583,33585,,,,,
296,33597,,,,,
233,33608,,,,,
300,33619,,,,,
319,33631,,,,,
322,33642,,,,,
329,33653,,,,,
335,33666,,,,,
338,33677,,,,,
344,33688,,,,,
353,33699,,,,,
361,33711,,,,,
369,33722,,,,,
376,33734,,,,,
384,33745,,,,,
387,33757,,,,,
386,33768,,,,,
383,33779,,,,,
382,33792,,,,,
372,33803,,,,,
359,33814,,,,,
340,33825,,,,,
328,33837,,,,,
325,33848,,,,,
323,33860,,,,,
324,33871,,,,,
325,33883,,,,,
328,33894,,,,,
330,33905,,,,,
334,33916,,,,,
332,33929,,,,,
336,33940,,,,,
344,33951,,,,,
338,33963,,,,,
332,33974,,,,,
323,33985,,,,,
319,33997,,,,,
318,34009,,,,,
316,34020,,,,,
316,34031,,,,,
314,34042,,,,,
290,34054,,,,,
381,34066,,,,,
577,34077,,,,,
395,34088,,,,,
205,34100,,,,,
277,34111,,,,,
305,34123,,,,,
311,34135,,,,,
317,34146,,,,,
322,34157,,,,,
328,34168,,,,,
334,34180,,,,,
341,34192,,,,,
347,34203,,,,,
355,34214,,,,,
358,34226,,,,,
365,34237,,,,,
373,34248,,,,,
373,34260,,,,,
370,34272,,,,,
369,34283,,,,,
364,34294,,,,,
348,34306,,,,,
330,34317,,,,,
318,34329,,,,,
309,34340,,,,,
310,34352,,,,,
308,34363,,,,,
311,34374,,,,,
312,34385,,,,,
316,34398,,,,,
317,34409,,,,,
312,34420,,,,,
323,34432,,,,,
327,34443,,,,,
325,34454,,,,,
319,34466,,,,,
307,34478,,,,,
305,34489,,,,,
301,34500,,,,,
301,34511,,,,,
298,34524,,,,,
297,34535,,,,,
272,34546,,,,,
342,34557,,,,,
555,34569,,,,,
420,34580,,,,,
207,34592,,,,,
264,34604,,,,,
299,34615,,,,,
304,34626,,,,,
309,34637,,,,,
319,34649,,,,,
322,34661,,,,,
330,34672,,,,,
333,34683,,,,,
340,34695,,,,,
351,34706,,,,,
360,34717,,,,,
369,34729,,,,,
373,34741,,,,,
382,34752,,,,,
378,34763,,,,,
378,34775,,,,,
371,34786,,,,,
355,34798,,,,,
343,34809,,,,,
331,34821,,,,,
328,34832,,,,,
323,34843,,,,,
327,34855,,,,,
328,34867,,,,,
328,34878,,,,,
333,34889,,,,,
333,34900,,,,,
330,34912,,,,,
336,34924,,,,,
342,34935,,,,,
341,34947,,,,,
332,34958,,,,,
324,34969,,,,,
316,34980,,,,,
316,34993,,,,,
316,35004,,,,,
316,35015,,,,,
317,35026,,,,,
287,35038,,,,,
336,35049,,,,,
553,35061,,,,,
468,35073,,,,,
226,35084,,,,,
271,35095,,,,,
305,35106,,,,,
311,35118,,,,,
317,35130,,,,,
319,35141,,,,,
326,35152,,,,,
331,35164,,,,,
336,35175,,,,,
343,35186,,,,,
347,35198,,,,,
358,35210,,,,,
363,35221,,,,,
369,35232,,,,,
371,35244,,,,,
370,35256,,,,,
369,35267,,,,,
362,35278,,,,,
352,35290,,,,,
333,35301,,,,,
324,35312,,,,,
317,35324,,,,,
315,35336,,,,,
320,35347,,,,,
323,35358,,,,,
328,35369,,,,,
324,35381,,,,,
327,35393,,,,,
325,35404,,,,,
325,35416,,,,,
334,35427,,,,,
338,35438,,,,,
338,35449,,,,,
326,35462,,,,,
319,35473,,,,,
316,35484,,,,,
315,35495,,,,,
317,35507,,,,,
313,35518,,,,,
311,35530,,,,,
281,35542,,,,,
418,35553,,,,,
583,35564,,,,,
353,35575,,,,,
230,35588,,,,,
289,35599,,,,,
307,35610,,,,,
311,35621,,,,,
318,35633,,,,,
323,35644,,,,,
329,35656,,,,,
333,35667,,,,,
338,35679,,,,,
344,35690,,,,,
350,35701,,,,,
358,35713,,,,,
364,35725,,,,,
369,35736,,,,,
371,35747,,,,,
367,35759,,,,,
365,35770,,,,,
356,35781,,,,,
345,35793,,,,,
328,35805,,,,,
319,35816,,,,,
315,35827,,,,,
316,35838,,,,,
319,35850,,,,,
318,35862,,,,,
320,35873,,,,,
319,35885,,,,,
319,35896,,,,,
320,35907,,,,,
321,35918,,,,,
331,35931,,,,,
333,35942,,,,,
330,35953,,,,,
319,35964,,,,,
309,35976,,,,,
308,35988,,,,,
307,35999,,,,,
310,36011,,,,,
310,36022,,,,,
303,36033,,,,,
278,36044,,,,,
446,36057,,,,,
562,36068,,,,,
293,36079,,,,,
237,36090,,,,,
295,36102,,,,,
307,36113,,,,,
311,36125,,,,,
316,36136,,,,,
324,36148,,,,,
326,36159,,,,,
332,36170,,,,,
337,36182,,,,,
348,36194,,,,,
354,36205,,,,,
361,36216,,,,,
370,36228,,,,,
371,36239,,,,,
371,36250,,,,,
367,36262,,,,,
371,36274,,,,,
363,36285,,,,,
348,36296,,,,,
334,36307,,,,,
326,36320,,,,,
324,36331,,,,,
321,36342,,,,,
325,36354,,,,,
329,36365,,,,,
329,36376,,,,,
332,36388,,,,,
332,36400,,,,,
330,36411,,,,,
333,36422,,,,,
347,36433,,,,,
350,36445,,,,,
341,36457,,,,,
332,36468,,,,,
325,36480,,,,,
324,36491,,,,,
324,36502,,,,,
327,36513,,,,,
329,36526,,,,,
311,36537,,,,,
318,36548,,,,,
524,36559,,,,,
549,36571,,,,,
260,36582,,,,,
264,36594,,,,,
316,36605,,,,,
325,36617,,,,,
333,36628,,,,,
334,36639,,,,,
340,36651,,,,,
344,36663,,,,,
351,36674,,,,,
358,36685,,,,,
361,36697,,,,,
373,36708,,,,,
378,36720,,,,,
385,36731,,,,,
385,36743,,,,,
382,36754,,,,,
381,36765,,,,,
379,36776,,,,,
372,36789,,,,,
354,36800,,,,,
342,36811,,,,,
333,36823,,,,,
329,36834,,,,,
330,36845,,,,,
330,36857,,,,,
333,36869,,,,,
335,36880,,,,,
338,36891,,,,,
340,36902,,,,,
338,36914,,,,,
343,36926,,,,,
348,36937,,,,,
349,36948,,,,,
341,36960,,,,,
331,36971,,,,,
327,36982,,,,,
325,36995,,,,,
324,37006,,,,,
321,37017,,,,,
324,37028,,,,,
307,37040,,,,,
323,37052,,,,,
526,37063,,,,,
506,37074,,,,,
225,37086,,,,,
251,37097,,,,,
307,37108,,,,,
314,37121,,,,,
319,37132,,,,,
323,37143,,,,,
328,37154,,,,,
334,37166,,,,,
338,37177,,,,,
348,37189,,,,,
350,37200,,,,,
358,37212,,,,,
363,37223,,,,,
367,37234,,,,,
369,37245,,,,,
364,37258,,,,,
367,37269,,,,,
363,37280,,,,,
354,37292,,,,,
336,37303,,,,,
319,37314,,,,,
309,37326,,,,,
305,37338,,,,,
307,37349,,,,,
309,37360,,,,,
312,37371,,,,,
316,37383,,,,,
317,37395,,,,,
318,37406,,,,,
313,37417,,,,,
323,37429,,,,,
329,37440,,,,,
329,37452,,,,,
319,37464,,,,,
309,37475,,,,,
305,37486,,,,,
303,37497,,,,,
306,37509,,,,,
304,37521,,,,,
302,37532,,,,,
273,37543,,,,,
384,37555,,,,,
558,37566,,,,,
349,37577,,,,,
212,37590,,,,,
280,37601,,,,,
302,37612,,,,,
306,37623,,,,,
313,37635,,,,,
320,37646,,,,,
321,37658,,,,,
327,37669,,,,,
330,37681,,,,,
338,37692,,,,,
344,37703,,,,,
352,37714,,,,,
360,37727,,,,,
362,37738,,,,,
365,37749,,,,,
361,37761,,,,,
361,37772,,,,,
355,37784,,,,,
342,37795,,,,,
328,37807,,,,,
316,37818,,,,,
312,37829,,,,,
310,37840,,,,,
313,37853,,,,,
316,37864,,,,,
317,37875,,,,,
321,37886,,,,,
322,37898,,,,,
320,37909,,,,,
322,37921,,,,,
333,37933,,,,,
337,37944,,,,,
328,37955,,,,,
320,37966,,,,,
312,37978,,,,,
314,37990,,,,,
313,38001,,,,,
313,38012,,,,,
315,38024,,,,,
291,38035,,,,,
324,38046,,,,,
536,38059,,,,,
485,38070,,,,,
233,38081,,,,,
272,38092,,,,,
306,38104,,,,,
310,38115,,,,,
318,38127,,,,,
321,38138,,,,,
330,38150,,,,,
333,38161,,,,,
338,38172,,,,,
348,38184,,,,,
356,38196,,,,,
363,38207,,,,,
368,38218,,,,,
374,38230,,,,,
373,38241,,,,,
371,38253,,,,,
371,38264,,,,,
365,38276,,,,,
358,38287,,,,,
341,38298,,,,,
331,38309,,,,,
323,38322,,,,,
323,38333,,,,,
322,38344,,,,,
321,38355,,,,,
325,38367,,,,,
325,38378,,,,,
329,38390,,,,,
327,38402,,,,,
326,38413,,,,,
335,38424,,,,,
339,38435,,,,,
341,38447,,,,,
330,38459,,,,,
322,38470,,,,,
318,38481,,,,,
317,38493,,,,,
319,38504,,,,,
316,38516,,,,,
312,38528,,,,,
280,38539,,,,,
419,38550,,,,,
582,38561,,,,,
345,38573,,,,,
243,38585,,,,,
297,38596,,,,,
314,38607,,,,,
316,38619,,,,,
322,38630,,,,,
327,38641,,,,,
335,38653,,,,,
341,38665,,,,,
343,38676,,,,,
351,38687,,,,,
355,38699,,,,,
365,38710,,,,,
374,38722,,,,,
375,38733,,,,,
376,38745,,,,,
373,38756,,,,,
374,38767,,,,,
360,38778,,,,,
348,38791,,,,,
335,38802,,,,,
327,38813,,,,,
325,38824,,,,,
322,38836,,,,,
327,38847,,,,,
327,38859,,,,,
329,38871,,,,,
332,38882,,,,,
334,38893,,,,,
334,38904,,,,,
337,38917,,,,,
346,38928,,,,,
347,38939,,,,,
341,38950,,,,,
332,38962,,,,,
325,38973,,,,,
326,38985,,,,,
324,38996,,,,,
325,39008,,,,,
322,39019,,,,,
303,39030,,,,,
327,39042,,,,,
544,39054,,,,,
506,39065,,,,,
232,39076,,,,,
269,39088,,,,,
315,39099,,,,,
321,39110,,,,,
326,39122,,,,,
332,39134,,,,,
339,39145,,,,,
341,39156,,,,,
353,39168,,,,,
355,39179,,,,,
364,39191,,,,,
371,39202,,,,,
379,39214,,,,,
386,39225,,,,,
386,39236,,,,,
387,39248,,,,,
382,39260,,,,,
382,39271,,,,,
371,39282,,,,,
354,39293,,,,,
340,39305,,,,,
329,39317,,,,,
329,39328,,,,,
328,39340,,,,,
331,39351,,,,,
332,39362,,,,,
332,39373,,,,,
337,39386,,,,,
336,39397,,,,,
338,39408,,,,,
341,39419,,,,,
349,39431,,,,,
348,39442,,,,,
333,39454,,,,,
325,39465,,,,,
321,39477,,,,,
323,39488,,,,,
322,39499,,,,,
322,39511,,,,,
319,39523,,,,,
293,39534,,,,,
437,39545,,,,,
580,39557,,,,,
308,39568,,,,,
217,39579,,,,,
292,39591,,,,,
313,39603,,,,,
317,39614,,,,,
326,39625,,,,,
326,39636,,,,,
333,39649,,,,,
339,39660,,,,,
345,39671,,,,,
349,39683,,,,,
357,39694,,,,,
368,39705,,,,,
373,39717,,,,,
380,39729,,,,,
377,39740,,,,,
375,39751,,,,,
374,39762,,,,,
367,39774,,,,,
354,39786,,,,,
332,39797,,,,,
322,39809,,,,,
314,39820,,,,,
311,39831,,,,,
314,39842,,,,,
317,39855,,,,,
320,39866,,,,,
323,39877,,,,,
327,39888,,,,,
323,39900,,,,,
331,39911,,,,,
336,39923,,,,,
334,39934,,,,,
326,39946,,,,,
313,39957,,,,,
310,39968,,,,,
307,39981,,,,,
307,39992,,,,,
309,40003,,,,,
302,40014,,,,,
273,40026,,,,,
378,40037,,,,,
562,40049,,,,,
351,40060,,,,,
207,40072,,,,,
277,40083,,,,,
301,40094,,,,,
309,40105,,,,,
311,40118,,,,,
317,40129,,,,,
322,40140,,,,,
327,40152,,,,,
335,40163,,,,,
339,40174,,,,,
349,40186,,,,,
357,40198,,,,,
362,40209,,,,,
365,40220,,,,,
366,40231,,,,,
366,40243,,,,,
363,40255,,,,,
359,40266,,,,,
344,40278,,,,,
329,40289,,,,,
317,40300,,,,,
311,40311,,,,,
311,40324,,,,,
311,40335,,,,,
315,40346,,,,,
316,40357,,,,,
321,40369,,,,,
323,40381,,,,,
318,40392,,,,,
324,40403,,,,,
332,40415,,,,,
336,40426,,,,,
327,40437,,,,,
318,40450,,,,,
313,40461,,,,,
312,40472,,,,,
314,40483,,,,,
312,40495,,,,,
314,40506,,,,,
285,40518,,,,,
324,40529,,,,,
545,40541,,,,,
472,40552,,,,,
228,40563,,,,,
268,40574,,,,,
306,40587,,,,,
309,40598,,,,,
315,40609,,,,,
322,40621,,,,,
326,40632,,,,,
333,40643,,,,,
337,40655,,,,,
342,40667,,,,,
347,40678,,,,,
357,40689,,,,,
361,40700,,,,,
365,40713,,,,,
368,40724,,,,,
364,40735,,,,,
365,40747,,,,,
360,40758,,,,,
352,40769,,,,,
335,40781,,,,,
324,40793,,,,,
320,40804,,,,,
316,40815,,,,,
319,40826,,,,,
320,40838,,,,,
323,40850,,,,,
326,40861,,,,,
330,40872,,,,,
328,40884,,,,,
325,40895,,,,,
338,40906,,,,,
340,40919,,,,,
337,40930,,,,,
327,40941,,,,,
320,40952,,,,,
320,40964,,,,,
319,40975,,,,,
319,40987,,,,,
318,40998,,,,,
306,41010,,,,,
295,41021,,,,,
480,41032,,,,,
565,41043,,,,,
280,41056,,,,,
254,41067,,,,,
307,41078,,,,,
319,41090,,,,,
320,41101,,,,,
327,41113,,,,,
334,41124,,,,,
338,41136,,,,,
347,41147,,,,,
350,41158,,,,,
354,41169,,,,,
366,41182,,,,,
374,41193,,,,,
381,41204,,,,,
381,41216,,,,,
383,41227,,,,,
383,41238,,,,,
380,41250,,,,,
368,41262,,,,,
355,41273,,,,,
342,41284,,,,,
331,41295,,,,,
330,41307,,,,,
330,41319,,,,,
331,41330,,,,,
335,41341,,,,,
335,41353,,,,,
337,41364,,,,,
335,41375,,,,,
336,41388,,,,,
343,41399,,,,,
351,41410,,,,,
349,41421,,,,,
338,41433,,,,,
327,41445,,,,,
322,41456,,,,,
325,41467,,,,,
326,41479,,,,,
323,41490,,,,,
318,41501,,,,,
291,41513,,,,,
443,41525,,,,,
579,41536,,,,,
310,41547,,,,,
225,41559,,,,,
295,41570,,,,,
316,41582,,,,,
319,41593,,,,,
326,41605,,,,,
328,41616,,,,,
332,41627,,,,,
337,41638,,,,,
344,41651,,,,,
353,41662,,,,,
359,41673,,,,,
367,41684,,,,,
371,41696,,,,,
378,41707,,,,,
376,41719,,,,,
375,41731,,,,,
375,41742,,,,,
364,41753,,,,,
351,41764,,,,,
331,41776,,,,,
320,41788,,,,,
315,41799,,,,,
315,41810,,,,,
318,41822,,,,,
317,41833,,,,,
322,41845,,,,,
324,41857,,,,,
325,41868,,,,,
323,41879,,,,,
331,41890,,,,,
337,41902,,,,,
333,41914,,,,,
325,41925,,,,,
315,41936,,,,,
309,41948,,,,,
308,41959,,,,,
307,41970,,,,,
309,41982,,,,,
300,41994,,,,,
271,42005,,,,,
395,42016,,,,,
558,42028,,,,,
331,42039,,,,,
212,42051,,,,,
284,42062,,,,,
301,42074,,,,,
307,42085,,,,,
311,42096,,,,,
317,42107,,,,,
323,42120,,,,,
324,42131,,,,,
332,42142,,,,,
338,42153,,,,,
347,42165,,,,,
352,42177,,,,,
361,42188,,,,,
363,42200,,,,,
361,42211,,,,,
362,42222,,,,,
361,42233,,,,,
355,42246,,,,,
337,42257,,,,,
325,42268,,,,,
316,42279,,,,,
310,42291,,,,,
310,42302,,,,,
311,42314,,,,,
315,42326,,,,,
317,42337,,,,,
320,42348,,,,,
319,42359,,,,,
316,42371,,,,,
325,42383,,,,,
333,42394,,,,,
335,42405,,,,,
323,42417,,,,,
316,42428,,,,,
312,42439,,,,,
309,42451,,,,,
311,42463,,,,,
309,42474,,,,,
308,42485,,,,,
273,42497,,,,,
393,42508,,,,,
577,42520,,,,,
366,42531,,,,,
228,42543,,,,,
286,42554,,,,,
307,42565,,,,,
310,42577,,,,,
317,42589,,,,,
322,42600,,,,,
328,42611,,,,,
333,42622,,,,,
335,42634,,,,,
343,42646,,,,,
349,42657,,,,,
357,42669,,,,,
365,42680,,,,,
365,42691,,,,,
369,42702,,,,,
363,42715,,,,,
365,42726,,,,,
358,42737,,,,,
345,42748,,,,,
332,42760,,,,,
320,42771,,,,,
318,42783,,,,,
318,42795,,,,,
321,42806,,,,,
321,42817,,,,,
324,42828,,,,,
327,42840,,,,,
328,42852,,,,,
325,42863,,,,,
331,42874,,,,,
340,42886,,,,,
341,42897,,,,,
332,42909,,,,,
324,42920,,,,,
317,42932,,,,,
319,42943,,,,,
316,42954,,,,,
319,42966,,,,,
315,42978,,,,,
281,42989,,,,,
356,43000,,,,,
575,43012,,,,,
436,43023,,,,,
232,43034,,,,,
285,43046,,,,,
309,43058,,,,,
314,43069,,,,,
319,43080,,,,,
322,43091,,,,,
329,43103,,,,,
333,43115,,,,,
341,43126,,,,,
347,43138,,,,,
354,43149,,,,,
362,43160,,,,,
368,43171,,,,,
374,43184,,,,,
372,43195,,,,,
373,43206,,,,,
374,43217,,,,,
366,43229,,,,,
356,43240,,,,,
340,43252,,,,,
329,43264,,,,,
323,43275,,,,,
323,43286,,,,,
325,43297,,,,,
326,43310,,,,,
329,43321,,,,,
331,43332,,,,,
335,43343,,,,,
332,43355,,,,,
334,43366,,,,,
340,43378,,,,,
346,43389,,,,,
344,43401,,,,,
333,43412,,,,,
330,43423,,,,,
323,43435,,,,,
321,43447,,,,,
323,43458,,,,,
324,43469,,,,,
312,43481,,,,,
300,43492,,,,,
501,43503,,,,,
578,43515,,,,,
281,43527,,,,,
257,43538,,,,,
308,43549,,,,,
320,43560,,,,,
324,43572,,,,,
333,43584,,,,,
333,43595,,,,,
340,43607,,,,,
347,43618,,,,,
352,43629,,,,,
359,43641,,,,,
366,43653,,,,,
377,43664,,,,,
379,43675,,,,,
384,43686,,,,,
383,43698,,,,,
382,43710,,,,,
382,43721,,,,,
369,43732,,,,,
354,43744,,,,,
338,43755,,,,,
328,43766,,,,,
324,43779,,,,,
322,43790,,,,,
327,43801,,,,,
326,43812,,,,,
331,43824,,,,,
336,43835,,,,,
333,43847,,,,,
334,43858,,,,,
338,43870,,,,,
346,43881,,,,,
341,43892,,,,,
332,43904,,,,,
322,43916,,,,,
319,43927,,,,,
319,43938,,,,,
318,43950,,,,,
319,43961,,,,,
307,43972,,,,,
294,43984,,,,,
480,43996,,,,,
561,44007,,,,,
263,44018,,,,,
233,44029,,,,,
299,44042,,,,,
309,44053,,,,,
315,44064,,,,,
320,44076,,,,,
324,44087,,,,,
331,44098,,,,,
335,44110,,,,,
344,44122,,,,,
347,44133,,,,,
358,44144,,,,,
365,44155,,,,,
371,44167,,,,,
374,44179,,,,,
374,44190,,,,,
374,44201,,,,,
369,44213,,,,,
360,44224,,,,,
340,44235,,,,,
323,44248,,,,,
313,44259,,,,,
308,44270,,,,,
309,44281,,,,,
310,44293,,,,,
312,44304,,,,,
314,44316,,,,,
319,44327,,,,,
318,44339,,,,,
317,44350,,,,,
327,44361,,,,,
331,44374,,,,,
329,44385,,,,,
317,44396,,,,,
309,44407,,,,,
308,44419,,,,,
305,44430,,,,,
309,44442,,,,,
306,44453,,,,,
295,44465,,,,,
277,44476,,,,,
459,44487,,,,,
545,44498,,,,,
266,44511,,,,,
235,44522,,,,,
288,44533,,,,,
305,44545,,,,,
309,44556,,,,,
311,44567,,,,,
314,44579,,,,,
318,44591,,,,,
324,44602,,,,,
328,44613,,,,,
335,44624,,,,,
341,44636,,,,,
348,44648,,,,,
357,44659,,,,,
360,44670,,,,,
362,44682,,,,,
357,44693,,,,,
358,44704,,,,,
346,44717,,,,,
329,44728,,,,,
318,44739,,,,,
310,44750,,,,,
309,44762,,,,,
307,44774,,,,,
310,44785,,,,,
313,44796,,,,,
314,44808,,,,,
319,44819,,,,,
315,44830,,,,,
324,44843,,,,,
332,44854,,,,,
335,44865,,,,,
326,44876,,,,,
316,44888,,,,,
309,44899,,,,,
306,44911,,,,,
309,44922,,,,,
307,44934,,,,,
310,44945,,,,,
281,44956,,,,,
316,44967,,,,,
546,44980,,,,,
484,44991,,,,,
235,45002,,,,,
268,45014,,,,,
303,45025,,,,,
308,45036,,,,,
312,45048,,,,,
319,45060,,,,,
323,45071,,,,,
329,45082,,,,,
333,45093,,,,,
343,45106,,,,,
349,45117,,,,,
355,45128,,,,,
365,45139,,,,,
369,45151,,,,,
371,45162,,,,,
366,45174,,,,,
369,45186,,,,,
366,45197,,,,,
351,45208,,,,,
338,45219,,,,,
323,45231,,,,,
320,45243,,,,,
315,45254,,,,,
319,45265,,,,,
323,45277,,,,,
324,45288,,,,,
327,45299,,,,,
327,45312,,,,,
328,45323,,,,,
331,45334,,,,,
341,45345,,,,,
342,45357,,,,,
337,45368,,,,,
328,45380,,,,,
322,45391,,,,,
321,45403,,,,,
319,45414,,,,,
320,45425,,,,,
320,45436,,,,,
285,45449,,,,,
346,45460,,,,,
578,45471,,,,,
478,45483,,,,,
244,45494,,,,,
284,45506,,,,,
312,45517,,,,,
313,45529,,,,,
320,45540,,,,,
325,45551,,,,,
333,45562,,,,,
336,45575,,,,,
341,45586,,,,,
347,45597,,,,,
353,45608,,,,,
362,45620,,,,,
369,45631,,,,,
378,45643,,,,,
377,45655,,,,,
376,45666,,,,,
375,45677,,,,,
369,45688,,,,,
357,45700,,,,,
337,45712,,,,,
326,45723,,,,,
323,45734,,,,,
321,45746,,,,,
321,45757,,,,,
325,45768,,,,,
327,45780,,,,,
327,45792,,,,,
331,45803,,,,,
328,45814,,,,,
330,45826,,,,,
341,45838,,,,,
345,45849,,,,,
344,45860,,,,,
332,45872,,,,,
326,45883,,,,,
322,45894,,,,,
322,45906,,,,,
323,45918,,,,,
322,45929,,,,,
313,45940,,,,,
297,45952,,,,,
501,45963,,,,,
574,45975,,,,,
271,45986,,,,,
248,45998,,,,,
305,46009,,,,,
321,46020,,,,,
322,46031,,,,,
328,46044,,,,,
329,46055,,,,,
335,46066,,,,,
344,46077,,,,,
348,46089,,,,,
356,46100,,,,,
363,46112,,,,,
372,46124,,,,,
378,46135,,,,,
384,46146,,,,,
387,46157,,,,,
382,46169,,,,,
381,46181,,,,,
369,46192,,,,,
351,46203,,,,,
336,46215,,,,,
323,46226,,,,,
319,46238,,,,,
320,46249,,,,,
326,46261,,,,,
325,46272,,,,,
325,46283,,,,,
326,46295,,,,,
327,46307,,,,,
324,46318,,,,,
328,46329,,,,,
341,46341,,,,,
340,46352,,,,,
332,46363,,,,,
319,46375,,,,,
313,46387,,,,,
315,46398,,,,,
311,46409,,,,,
316,46420,,,,,
313,46432,,,,,
293,46444,,,,,
351,46455,,,,,
572,46467,,,,,
437,46478,,,,,
191,46489,,,,,
259,46500,,,,,
301,46513,,,,,
309,46524,,,,,
313,46535,,,,,
316,46546,,,,,
323,46558,,,,,
327,46570,,,,,
334,46581,,,,,
339,46593,,,,,
348,46604,,,,,
355,46615,,,,,
361,46626,,,,,
367,46639,,,,,
366,46650,,,,,
368,46661,,,,,
365,46672,,,,,
359,46684,,,,,
343,46695,,,,,
323,46707,,,,,
311,46718,,,,,
298,46730,,,,,
297,46741,,,,,
294,46752,,,,,
298,46764,,,,,
302,46776,,,,,
301,46787,,,,,
307,46798,,,,,
301,46810,,,,,
306,46821,,,,,
311,46832,,,,,
314,46844,,,,,
308,46856,,,,,
295,46867,,,,,
288,46878,,,,,
283,46889,,,,,
283,46901,,,,,
280,46913,,,,,
276,46924,,,,,
263,46936,,,,,
256,46947,,,,,
454,46958,,,,,
491,46970,,,,,
215,46982,,,,,
205,46993,,,,,
259,47004,,,,,
267,47015,,,,,
271,47027,,,,,
277,47039,,,,,
280,47050,,,,,
288,47062,,,,,
291,47073,,,,,
298,47084,,,,,
305,47095,,,,,
311,47108,,,,,
319,47119,,,,,
326,47130,,,,,
331,47141,,,,,
330,47153,,,,,
331,47164,,,,,
329,47176,,,,,
317,47187,,,,,
304,47199,,,,,
289,47210,,,,,
285,47221,,,,,
281,47233,,,,,
282,47245,,,,,
285,47256,,,,,
288,47267,,,,,
294,47279,,,,,
292,47290,,,,,
294,47302,,,,,
292,47313,,,,,
301,47325,,,,,
311,47336,,,,,
309,47347,,,,,
306,47358,,,,,
294,47371,,,,,
291,47382,,,,,
290,47393,,,,,
292,47405,,,,,
291,47416,,,,,
288,47427,,,,,
258,47439,,,,,
332,47451,,,,,
562,47462,,,,,
429,47473,,,,,
214,47484,,,,,
262,47496,,,,,
288,47508,,,,,
293,47519,,,,,
295,47531,,,,,
301,47542,,,,,
305,47553,,,,,
311,47564,,,,,
319,47577,,,,,
323,47588,,,,,
333,47599,,,,,
337,47610,,,,,
348,47622,,,,,
353,47633,,,,,
355,47645,,,,,
357,47656,,,,,
353,47668,,,,,
350,47679,,,,,
338,47690,,,,,
323,47703,,,,,
311,47714,,,,,
305,47725,,,,,
306,47736,,,,,
306,47748,,,,,
311,47759,,,,,
312,47771,,,,,
315,47782,,,,,
324,47794,,,,,
332,47805,,,,,
330,47816,,,,,
330,47827,,,,,
343,47840,,,,,
343,47851,,,,,
338,47862,,,,,
327,47874,,,,,
322,47885,,,,,
321,47896,,,,,
319,47908,,,,,
320,47920,,,,,
319,47931,,,,,
310,47942,,,,,
302,47953,,,,,
501,47965,,,,,
585,47977,,,,,
286,47988,,,,,
256,48000,,,,,
308,48011,,,,,
319,48022,,,,,
322,48034,,,,,
328,48046,,,,,
335,48057,,,,,
337,48068,,,,,
343,48079,,,,,
347,48091,,,,,
356,48103,,,,,
365,48114,,,,,
371,48125,,,,,
380,48137,,,,,
380,48148,,,,,
382,48159,,,,,
380,48172,,,,,
379,48183,,,,,
373,48194,,,,,
357,48205,,,,,
341,48217,,,,,
331,48228,,,,,
328,48240,,,,,
326,48251,,,,,
327,48263,,,,,
330,48274,,,,,
329,48285,,,,,
334,48296,,,,,
335,48309,,,,,
336,48320,,,,,
332,48331,,,,,
341,48343,,,,,
347,48354,,,,,
344,48365,,,,,
336,48377,,,,,
325,48389,,,,,
323,48400,,,,,
321,48411,,,,,
323,48422,,,,,
324,48435,,,,,
318,48446,,,,,
295,48457,,,,,
424,48468,,,,,
593,48480,,,,,
341,48491,,,,,
214,48503,,,,,
287,48515,,,,,
311,48526,,,,,
317,48537,,,,,
320,48548,,,,,
330,48560,,,,,
334,48572,,,,,
339,48583,,,,,
349,48594,,,,,
355,48606,,,,,
365,48617,,,,,
370,48628,,,,,
380,48641,,,,,
384,48652,,,,,
387,48663,,,,,
386,48674,,,,,
384,48686,,,,,
378,48697,,,,,
360,48709,,,,,
344,48720,,,,,
327,48732,,,,,
319,48743,,,,,
318,48754,,,,,
319,48766,,,,,
324,48778,,,,,
322,48789,,,,,
327,48800,,,,,
328,48812,,,,,
328,48823,,,,,
325,48835,,,,,
329,48846,,,,,
337,48858,,,,,
337,48869,,,,,
331,48880,,,,,
320,48891,,,,,
314,48904,,,,,
315,48915,,,,,
313,48926,,,,,
316,48937,,,,,
313,48949,,,,,
288,48960,,,,,
352,48972,,,,,
573,48984,,,,,
452,48995,,,,,
221,49006,,,,,
277,49017,,,,,
310,49029,,,,,
318,49041,,,,,
322,49052,,,,,
327,49063,,,,,
336,49075,,,,,
338,49086,,,,,
345,49097,,,,,
350,49110,,,,,
358,49121,,,,,
367,49132,,,,,
373,49143,,,,,
378,49155,,,,,
377,49167,,,,,
379,49178,,,,,
379,49189,,,,,
376,49201,,,,,
367,49212,,,,,
350,49223,,,,,
335,49235,,,,,
325,49247,,,,,
325,49258,,,,,
325,49269,,,,,
326,49281,,,,,
329,49292,,,,,
328,49304,,,,,
331,49315,,,,,
329,49327,,,,,
327,49338,,,,,
332,49349,,,,,
341,49360,,,,,
343,49373,,,,,
335,49384,,,,,
325,49395,,,,,
316,49406,,,,,
316,49418,,,,,
315,49429,,,,,
319,49441,,,,,
319,49453,,,,,
297,49464,,,,,
327,49475,,,,,
544,49486,,,,,
525,49499,,,,,
250,49510,,,,,
272,49521,,,,,
311,49532,,,,,
316,49544,,,,,
323,49555,,,,,
327,49567,,,,,
335,49579,,,,,
339,49590,,,,,
343,49601,,,,,
348,49612,,,,,
355,49624,,,,,
363,49636,,,,,
367,49647,,,,,
375,49658,,,,,
375,49670,,,,,
374,49681,,,,,
371,49692,,,,,
368,49704,,,,,
362,49716,,,,,
346,49727,,,,,
337,49738,,,,,
328,49750,,,,,
327,49761,,,,,
330,49773,,,,,
330,49784,,,,,
333,49796,,,,,
332,49807,,,,,
335,49818,,,,,
334,49829,,,,,
335,49842,,,,,
336,49853,,,,,
345,49864,,,,,
351,49875,,,,,
349,49887,,,,,
340,49899,,,,,
326,49910,,,,,
325,49922,,,,,
328,49933,,,,,
327,49944,,,,,
329,49955,,,,,
321,49968,,,,,
293,49979,,,,,
429,49990,,,,,
608,50001,,,,,
375,50013,,,,,
245,50024,,,,,
301,50036,,,,,
315,50048,,,,,
324,50059,,,,,
326,50070,,,,,
331,50081,,,,,
336,50093,,,,,
341,50105,,,,,
346,50116,,,,,
352,50127,,,,,
364,50139,,,,,
369,50150,,,,,
376,50161,,,,,
380,50173,,,,,
379,50185,,,,,
380,50196,,,,,
375,50207,,,,,
374,50219,,,,,
364,50231,,,,,
350,50242,,,,,
338,50253,,,,,
332,50265,,,,,
336,50276,,,,,
336,50287,,,,,
339,50299,,,,,
338,50311,,,,,
339,50322,,,,,
343,50333,,,,,
341,50344,,,,,
342,50356,,,,,
342,50368,,,,,
354,50379,,,,,
354,50391,,,,,
351,50402,,,,,
341,50413,,,,,
334,50424,,,,,
335,50437,,,,,
332,50448,,,,,
331,50459,,,,,
330,50470,,,,,
318,50482,,,,,
325,50493,,,,,
528,50505,,,,,
553,50516,,,,,
249,50528,,,,,
255,50539,,,,,
311,50550,,,,,
322,50562,,,,,
327,50574,,,,,
330,50585,,,,,
338,50596,,,,,
342,50608,,,,,
349,50619,,,,,
354,50631,,,,,
362,50642,,,,,
370,50654,,,,,
374,50665,,,,,
383,50676,,,,,
378,50688,,,,,
382,50700,,,,,
384,50711,,,,,
384,50722,,,,,
377,50734,,,,,
356,50745,,,,,
345,50756,,,,,
331,50768,,,,,
327,50780,,,,,
326,50791,,,,,
328,50802,,,,,
333,50813,,,,,
330,50825,,,,,
336,50837,,,,,
337,50848,,,,,
338,50860,,,,,
337,50871,,,,,
342,50882,,,,,
348,50893,,,,,
338,50906,,,,,
332,50917,,,,,
322,50928,,,,,
321,50939,,,,,
319,50951,,,,,
317,50963,,,,,
319,50974,,,,,
307,50985,,,,,
310,50997,,,,,
498,51008,,,,,
528,51019,,,,,
236,51032,,,,,
235,51043,,,,,
302,51054,,,,,
312,51065,,,,,
316,51077,,,,,
320,51088,,,,,
327,51100,,,,,
332,51111,,,,,
337,51123,,,,,
343,51134,,,,,
347,51145,,,,,
354,51156,,,,,
358,51169,,,,,
367,51180,,,,,
369,51191,,,,,
366,51203,,,,,
370,51214,,,,,
368,51225,,,,,
362,51237,,,,,
345,51249,,,,,
331,51260,,,,,
317,51271,,,,,
312,51282,,,,,
314,51294,,,,,
314,51306,,,,,
317,51317,,,,,
317,51329,,,,,
324,51340,,,,,
323,51351,,,,,
319,51363,,,,,
330,51375,,,,,
334,51386,,,,,
334,51397,,,,,
323,51408,,,,,
314,51420,,,,,
310,51432,,,,,
307,51443,,,,,
309,51454,,,,,
309,51466,,,,,
305,51477,,,,,
275,51488,,,,,
396,51501,,,,,
562,51512,,,,,
340,51523,,,,,
212,51534,,,,,
281,51546,,,,,
303,51557,,,,,
307,51569,,,,,
312,51580,,,,,
318,51592,,,,,
320,51603,,,,,
327,51614,,,,,
333,51625,,,,,
339,51638,,,,,
343,51649,,,,,
352,51660,,,,,
359,51672,,,,,
359,51683,,,,,
361,51695,,,,,
357,51706,,,,,
362,51718,,,,,
357,51729,,,,,
345,51740,,,,,
331,51751,,,,,
319,51764,,,,,
317,51775,,,,,
313,51786,,,,,
317,51798,,,,,
318,51809,,,,,
320,51820,,,,,
323,51832,,,,,
321,51844,,,,,
321,51855,,,,,
327,51866,,,,,
337,51877,,,,,
334,51889,,,,,
326,51901,,,,,
316,51912,,,,,
310,51923,,,,,
314,51935,,,,,
311,51946,,,,,
313,51957,,,,,
307,51970,,,,,
277,51981,,,,,
399,51992,,,,,
576,52003,,,,,
362,52015,,,,,
225,52026,,,,,
289,52038,,,,,
307,52049,,,,,
312,52061,,,,,
319,52072,,,,,
321,52083,,,,,
328,52096,,,,,
332,52107,,,,,
339,52118,,,,,
343,52129,,,,,
349,52141,,,,,
357,52152,,,,,
360,52164,,,,,
366,52175,,,,,
365,52187,,,,,
363,52198,,,,,
363,52209,,,,,
359,52220,,,,,
353,52233,,,,,
336,52244,,,,,
329,52255,,,,,
324,52267,,,,,
326,52278,,,,,
327,52289,,,,,
328,52301,,,,,
331,52313,,,,,
329,52324,,,,,
328,52335,,,,,
331,52346,,,,,
340,52358,,,,,
344,52370,,,,,
339,52381,,,,,
328,52392,,,,,
320,52404,,,,,
320,52415,,,,,
318,52427,,,,,
317,52439,,,,,
315,52450,,,,,
291,52461,,,,,
319,52472,,,,,
535,52484,,,,,
497,52496,,,,,
240,52507,,,,,
274,52518,,,,,
309,52530,,,,,
313,52541,,,,,
320,52552,,,,,
325,52564,,,,,
332,52576,,,,,
335,52587,,,,,
341,52598,,,,,
345,52610,,,,,
351,52621,,,,,
358,52633,,,,,
361,52644,,,,,
368,52656,,,,,
367,52667,,,,,
366,52678,,,,,
365,52689,,,,,
364,52702,,,,,
356,52713,,,,,
339,52724,,,,,
327,52736,,,,,
320,52747,,,,,
321,52758,,,,,
321,52770,,,,,
321,52782,,,,,
325,52793,,,,,
326,52804,,,,,
326,52815,,,,,
323,52828,,,,,
333,52839,,,,,
339,52850,,,,,
338,52861,,,,,
327,52873,,,,,
315,52884,,,,,
316,52896,,,,,
313,52908,,,,,
315,52919,,,,,
315,52930,,,,,
302,52941,,,,,
276,52953,,,,,
453,52965,,,,,
556,52976,,,,,
277,52987,,,,,
243,52999,,,,,
300,53010,,,,,
305,53021,,,,,
310,53033,,,,,
311,53045,,,,,
320,53056,,,,,
326,53067,,,,,
331,53079,,,,,
336,53090,,,,,
341,53102,,,,,
349,53113,,,,,
352,53125,,,,,
359,53136,,,,,
361,53147,,,,,
360,53159,,,,,
362,53171,,,,,
361,53182,,,,,
355,53193,,,,,
338,53204,,,,,
325,53216,,,,,
314,53228,,,,,
309,53239,,,,,
312,53251,,,,,
315,53262,,,,,
319,53273,,,,,
318,53284,,,,,
322,53297,,,,,
318,53308,,,,,
325,53319,,,,,
333,53330,,,,,
333,53342,,,,,
327,53353,,,,,
314,53365,,,,,
309,53377,,,,,
308,53388,,,,,
310,53399,,,,,
312,53410,,,,,
307,53422,,,,,
279,53434,,,,,
373,53445,,,,,
582,53456,,,,,
369,53468,,,,,
197,53479,,,,,
271,53490,,,,,
301,53502,,,,,
311,53514,,,,,
311,53525,,,,,
319,53536,,,,,
321,53548,,,,,
327,53560,,,,,
334,53571,,,,,
338,53582,,,,,
349,53594,,,,,
351,53605,,,,,
363,53616,,,,,
365,53628,,,,,
367,53640,,,,,
367,53651,,,,,
368,53662,,,,,
369,53673,,,,,
355,53685,,,,,
340,53697,,,,,
323,53708,,,,,
319,53720,,,,,
320,53731,,,,,
319,53742,,,,,
326,53753,,,,,
326,53766,,,,,
332,53777,,,,,
328,53788,,,,,
334,53799,,,,,
341,53811,,,,,
342,53822,,,,,
335,53834,,,,,
323,53846,,,,,
318,53857,,,,,
315,53868,,,,,
317,53879,,,,,
317,53892,,,,,
315,53903,,,,,
293,53914,,,,,
350,53925,,,,,
564,53937,,,,,
419,53948,,,,,
195,53960,,,,,
266,53971,,,,,
309,53983,,,,,
317,53994,,,,,
321,54005,,,,,
327,54017,,,,,
332,54029,,,,,
334,54040,,,,,
342,54051,,,,,
347,54063,,,,,
355,54074,,,,,
359,54085,,,,,
366,54097,,,,,
371,54109,,,,,
370,54120,,,,,
373,54131,,,,,
371,54142,,,,,
373,54154,,,,,
359,54166,,,,,
342,54177,,,,,
326,54189,,,,,
317,54200,,,,,
315,54211,,,,,
316,54222,,,,,
321,54235,,,,,
321,54246,,,,,
327,54257,,,,,
326,54268,,,,,
330,54280,,,,,
341,54292,,,,,
338,54303,,,,,
331,54315,,,,,
320,54326,,,,,
317,54337,,,,,
315,54348,,,,,
314,54361,,,,,
313,54372,,,,,
309,54383,,,,,
281,54394,,,,,
355,54406,,,,,
556,54417,,,,,
390,54429,,,,,
201,54440,,,,,
273,54452,,,,,
304,54463,,,,,
314,54474,,,,,
319,54486,,,,,
321,54498,,,,,
325,54509,,,,,
330,54520,,,,,
338,54532,,,,,
343,54543,,,,,
351,54554,,,,,
354,54566,,,,,
362,54578,,,,,
368,54589,,,,,
367,54600,,,,,
368,54611,,,,,
367,54624,,,,,
367,54635,,,,,
353,54646,,,,,
337,54658,,,,,
322,54669,,,,,
315,54680,,,,,
315,54692,,,,,
315,54704,,,,,
321,54715,,,,,
321,54726,,,,,
326,54737,,,,,
324,54749,,,,,
331,54761,,,,,
340,54772,,,,,
339,54784,,,,,
333,54795,,,,,
321,54806,,,,,
318,54817,,,,,
319,54830,,,,,
316,54841,,,,,
317,54852,,,,,
314,54863,,,,,
282,54875,,,,,
360,54886,,,,,
573,54898,,,,,
416,54909,,,,,
224,54921,,,,,
287,54932,,,,,
312,54943,,,,,
318,54955,,,,,
320,54967,,,,,
327,54978,,,,,
335,54989,,,,,
336,55001,,,,,
344,55012,,,,,
347,55024,,,,,
354,55035,,,,,
359,55047,,,,,
365,55058,,,,,
370,55069,,,,,
370,55080,,,,,
373,55093,,,,,
371,55104,,,,,
369,55115,,,,,
356,55127,,,,,
341,55138,,,,,
332,55149,,,,,
323,55161,,,,,
327,55173,,,,,
325,55184,,,,,
329,55195,,,,,
332,55206,,,,,
334,55218,,,,,
329,55230,,,,,
335,55241,,,,,
347,55252,,,,,
345,55264,,,,,
341,55275,,,,,
330,55286,,,,,
323,55299,,,,,
324,55310,,,,,
320,55321,,,,,
322,55332,,,,,
320,55344,,,,,
286,55356,,,,,
342,55367,,,,,
571,55378,,,,,
466,55390,,,,,
239,55401,,,,,
287,55412,,,,,
310,55425,,,,,
317,55436,,,,,
322,55447,,,,,
325,55458,,,,,
332,55470,,,,,
333,55481,,,,,
342,55493,,,,,
344,55504,,,,,
353,55516,,,,,
358,55527,,,,,
364,55538,,,,,
371,55549,,,,,
371,55562,,,,,
370,55573,,,,,
368,55584,,,,,
367,55596,,,,,
353,55607,,,,,
341,55618,,,,,
331,55630,,,,,
322,55642,,,,,
324,55653,,,,,
323,55664,,,,,
327,55675,,,,,
329,55687,,,,,
329,55699,,,,,
334,55710,,,,,
327,55721,,,,,
337,55733,,,,,
343,55744,,,,,
345,55756,,,,,
339,55768,,,,,
329,55779,,,,,
326,55790,,,,,
321,55801,,,,,
322,55813,,,,,
320,55825,,,,,
320,55836,,,,,
288,55847,,,,,
359,55859,,,,,
593,55870,,,,,
461,55881,,,,,
246,55894,,,,,
289,55905,,,,,
316,55916,,,,,
319,55927,,,,,
325,55939,,,,,
332,55950,,,,,
334,55962,,,,,
342,55973,,,,,
345,55985,,,,,
349,55996,,,,,
355,56007,,,,,
363,56018,,,,,
370,56031,,,,,
373,56042,,,,,
377,56053,,,,,
371,56065,,,,,
372,56076,,,,,
370,56088,,,,,
358,56099,,,,,
345,56111,,,,,
332,56122,,,,,
325,56133,,,,,
323,56144,,,,,
326,56157,,,,,
327,56168,,,,,
328,56179,,,,,
334,56190,,,,,
332,56202,,,,,
336,56213,,,,,
330,56225,,,,,
337,56237,,,,,
348,56248,,,,,
346,56259,,,,,
335,56270,,,,,
325,56282,,,,,
325,56294,,,,,
321,56305,,,,,
322,56316,,,,,
321,56328,,,,,
319,56339,,,,,
288,56350,,,,,
386,56363,,,,,
612,56374,,,,,
420,56385,,,,,
237,56396,,,,,
292,56408,,,,,
313,56419,,,,,
322,56431,,,,,
323,56442,,,,,
332,56454,,,,,
337,56465,,,,,
342,56476,,,,,
346,56488,,,,,
349,56500,,,,,
361,56511,,,,,
366,56522,,,,,
372,56534,,,,,
376,56545,,,,,
377,56557,,,,,
378,56568,,,,,
377,56580,,,,,
375,56591,,,,,
361,56602,,,,,
349,56613,,,,,
331,56626,,,,,
321,56637,,,,,
321,56648,,,,,
321,56659,,,,,
325,56671,,,,,
326,56682,,,,,
328,56694,,,,,
328,56706,,,,,
330,56717,,,,,
330,56728,,,,,
324,56739,,,,,
337,56751,,,,,
340,56763,,,,,
341,56774,,,,,
326,56785,,,,,
319,56797,,,,,
317,56808,,,,,
315,56820,,,,,
318,56832,,,,,
317,56843,,,,,
318,56854,,,,,
292,56865,,,,,
431,56877,,,,,
609,56889,,,,,
347,56900,,,,,
221,56911,,,,,
290,56923,,,,,
317,56934,,,,,
320,56945,,,,,
326,56957,,,,,
331,56969,,,,,
336,56980,,,,,
340,56991,,,,,
344,57003,,,,,
353,57014,,,,,
361,57026,,,,,
368,57037,,,,,
377,57049,,,,,
378,57060,,,,,
383,57071,,,,,
380,57082,,,,,
380,57095,,,,,
378,57106,,,,,
363,57117,,,,,
344,57128,,,,,
329,57140,,,,,
322,57151,,,,,
319,57163,,,,,
322,57175,,,,,
322,57186,,,,,
325,57197,,,,,
329,57208,,,,,
328,57221,,,,,
330,57232,,,,,
329,57243,,,,,
326,57254,,,,,
329,57266,,,,,
336,57277,,,,,
338,57289,,,,,
330,57300,,,,,
322,57312,,,,,
313,57323,,,,,
314,57334,,,,,
314,57346,,,,,
311,57358,,,,,
315,57369,,,,,
302,57380,,,,,
320,57392,,,,,
518,57403,,,,,
498,57414,,,,,
209,57426,,,,,
237,57438,,,,,
300,57449,,,,,
310,57460,,,,,
316,57472,,,,,
319,57483,,,,,
323,57495,,,,,
329,57506,,,,,
336,57518,,,,,
342,57529,,,,,
345,57540,,,,,
354,57552,,,,,
360,57564,,,,,
368,57575,,,,,
371,57586,,,,,
370,57597,,,,,
369,57609,,,,,
367,57621,,,,,
363,57632,,,,,
343,57644,,,,,
329,57655,,,,,
316,57666,,,,,
311,57677,,,,,
312,57690,,,,,
310,57701,,,,,
315,57712,,,,,
315,57723,,,,,
319,57735,,,,,
321,57746,,,,,
320,57758,,,,,
321,57769,,,,,
315,57781,,,,,
322,57792,,,,,
328,57803,,,,,
329,57815,,,,,
323,57827,,,,,
312,57838,,,,,
308,57849,,,,,
306,57861,,,,,
308,57872,,,,,
308,57883,,,,,
307,57895,,,,,
289,57907,,,,,
344,57918,,,,,
569,57929,,,,,
470,57940,,,,,
221,57953,,,,,
261,57964,,,,,
300,57975,,,,,
306,57987,,,,,
309,57998,,,,,
319,58009,,,,,
321,58021,,,,,
327,58033,,,,,
331,58044,,,,,
336,58055,,,,,
344,58066,,,,,
350,58078,,,,,
360,58090,,,,,
365,58101,,,,,
371,58113,,,,,
367,58124,,,,,
369,58135,,,,,
367,58146,,,,,
355,58159,,,,,
341,58170,,,,,
325,58181,,,,,
319,58192,,,,,
315,58204,,,,,
317,58215,,,,,
320,58227,,,,,
320,58238,,,,,
325,58250,,,,,
324,58261,,,,,
323,58272,,,,,
323,58285,,,,,
324,58296,,,,,
320,58307,,,,,
321,58318,,,,,
336,58330,,,,,
334,58341,,,,,
332,58353,,,,,
320,58364,,,,,
314,58376,,,,,
314,58387,,,,,
315,58398,,,,,
316,58409,,,,,
315,58422,,,,,
305,58433,,,,,
318,58444,,,,,
526,58456,,,,,
555,58467,,,,,
265,58478,,,,,
257,58490,,,,,
299,58502,,,,,
308,58513,,,,,
312,58524,,,,,
319,58535,,,,,
323,58547,,,,,
323,58559,,,,,
330,58570,,,,,
334,58582,,,,,
342,58593,,,,,
349,58604,,,,,
355,58615,,,,,
363,58628,,,,,
365,58639,,,,,
367,58650,,,,,
362,58661,,,,,
362,58673,,,,,
353,58685,,,,,
337,58696,,,,,
325,58707,,,,,
312,58719,,,,,
312,58730,,,,,
309,58741,,,,,
313,58754,,,,,
315,58765,,,,,
314,58776,,,,,
319,58787,,,,,
318,58799,,,,,
321,58810,,,,,
317,58822,,,,,
317,58833,,,,,
316,58845,,,,,
327,58856,,,,,
333,58867,,,,,
329,58878,,,,,
323,58891,,,,,
313,58902,,,,,
314,58913,,,,,
314,58925,,,,,
311,58936,,,,,
315,58947,,,,,
307,58959,,,,,
289,58971,,,,,
432,58982,,,,,
610,58993,,,,,
364,59004,,,,,
233,59017,,,,,
288,59028,,,,,
302,59039,,,,,
311,59051,,,,,
313,59062,,,,,
318,59073,,,,,
324,59085,,,,,
328,59097,,,,,
338,59108,,,,,
341,59119,,,,,
348,59130,,,,,
354,59142,,,,,
360,59154,,,,,
367,59165,,,,,
368,59176,,,,,
368,59188,,,,,
366,59199,,,,,
363,59210,,,,,
349,59223,,,,,
333,59234,,,,,
322,59245,,,,,
313,59256,,,,,
313,59268,,,,,
312,59279,,,,,
319,59291,,,,,
319,59302,,,,,
319,59314,,,,,
321,59325,,,,,
319,59336,,,,,
322,59347,,,,,
321,59360,,,,,
321,59371,,,,,
318,59382,,,,,
331,59394,,,,,
336,59405,,,,,
332,59417,,,,,
324,59428,,,,,
313,59440,,,,,
316,59451,,,,,
314,59462,,,,,
313,59473,,,,,
317,59486,,,,,
310,59497,,,,,
298,59508,,,,,
442,59520,,,,,
601,59531,,,,,
334,59542,,,,,
223,59554,,,,,
287,59566,,,,,
307,59577,,,,,
315,59588,,,,,
317,59599,,,,,
323,59611,,,,,
328,59623,,,,,
333,59634,,,,,
342,59645,,,,,
345,59657,,,,,
354,59668,,,,,
360,59679,,,,,
369,59692,,,,,
375,59703,,,,,
374,59714,,,,,
373,59725,,,,,
372,59737,,,,,
371,59749,,,,,
354,59760,,,,,
338,59771,,,,,
322,59783,,,,,
315,59794,,,,,
315,59805,,,,,
314,59817,,,,,
317,59829,,,,,
317,59840,,,,,
322,59851,,,,,
323,59863,,,,,
323,59874,,,,,
322,59886,,,,,
321,59897,,,,,
323,59909,,,,,
324,59920,,,,,
332,59931,,,,,
335,59942,,,,,
329,59955,,,,,
320,59966,,,,,
313,59977,,,,,
317,59988,,,,,
315,60000,,,,,
318,60011,,,,,
