EKG,T,,,,,
407,2,116,0.04906195,3.448275862,0.021548731,0
407,3,,,,,
408,4,,,,,
408,5,,,,,
409,6,,,,,
408,7,,,,,
408,8,,,,,
409,9,,,,,
408,10,,,,,
407,11,,,,,
401,19,,,,,
400,27,,,,,
400,35,,,,,
392,45,,,,,
398,53,,,,,
390,61,,,,,
394,69,,,,,
393,77,,,,,
389,86,,,,,
394,94,,,,,
386,102,,,,,
392,112,,,,,
385,121,,,,,
392,131,,,,,
385,140,,,,,
389,149,,,,,
386,158,,,,,
387,167,,,,,
386,178,,,,,
384,187,,,,,
385,196,,,,,
381,205,,,,,
385,215,,,,,
379,224,,,,,
385,233,,,,,
378,242,,,,,
385,252,,,,,
378,262,,,,,
385,271,,,,,
377,280,,,,,
383,289,,,,,
380,299,,,,,
385,308,,,,,
383,318,,,,,
384,327,,,,,
384,336,,,,,
379,346,,,,,
382,355,,,,,
377,364,,,,,
382,373,,,,,
375,384,,,,,
382,393,,,,,
373,402,,,,,
380,411,,,,,
399,420,,,,,
436,430,,,,,
389,439,,,,,
351,449,,,,,
352,458,,,,,
369,467,,,,,
374,477,,,,,
375,486,,,,,
377,495,,,,,
375,504,,,,,
379,515,,,,,
375,524,,,,,
381,533,,,,,
374,542,,,,,
382,551,,,,,
375,561,,,,,
383,570,,,,,
376,580,,,,,
384,589,,,,,
379,599,,,,,
384,608,,,,,
381,617,,,,,
383,626,,,,,
383,635,,,,,
382,646,,,,,
385,655,,,,,
381,664,,,,,
384,673,,,,,
377,683,,,,,
381,692,,,,,
372,701,,,,,
380,711,,,,,
372,720,,,,,
379,730,,,,,
373,739,,,,,
379,748,,,,,
374,757,,,,,
379,766,,,,,
376,777,,,,,
376,786,,,,,
377,795,,,,,
375,804,,,,,
377,814,,,,,
372,823,,,,,
376,832,,,,,
370,841,,,,,
377,851,,,,,
369,861,,,,,
377,870,,,,,
369,879,,,,,
376,888,,,,,
371,898,,,,,
376,907,,,,,
372,917,,,,,
375,926,,,,,
372,935,,,,,
372,945,,,,,
375,954,,,,,
373,963,,,,,
377,972,,,,,
373,983,,,,,
378,992,,,,,
370,1001,,,,,
375,1011,,,,,
368,1021,,,,,
374,1032,,,,,
369,1043,,,,,
373,1053,,,,,
367,1063,,,,,
389,1074,,,,,
427,1084,,,,,
388,1094,,,,,
340,1104,,,,,
348,1116,,,,,
366,1126,,,,,
366,1136,,,,,
371,1146,,,,,
367,1157,,,,,
374,1167,,,,,
368,1178,,,,,
375,1188,,,,,
369,1199,,,,,
377,1209,,,,,
370,1219,,,,,
379,1229,,,,,
372,1240,,,,,
381,1251,,,,,
376,1261,,,,,
382,1271,,,,,
377,1282,,,,,
381,1292,,,,,
378,1302,,,,,
382,1313,,,,,
379,1324,,,,,
378,1334,,,,,
377,1344,,,,,
373,1354,,,,,
375,1364,,,,,
371,1376,,,,,
375,1386,,,,,
370,1396,,,,,
376,1406,,,,,
370,1417,,,,,
376,1427,,,,,
369,1437,,,,,
376,1448,,,,,
367,1459,,,,,
375,1469,,,,,
367,1479,,,,,
374,1489,,,,,
367,1500,,,,,
373,1511,,,,,
368,1521,,,,,
372,1531,,,,,
369,1542,,,,,
372,1552,,,,,
371,1562,,,,,
370,1572,,,,,
372,1584,,,,,
373,1594,,,,,
376,1604,,,,,
371,1614,,,,,
373,1625,,,,,
366,1635,,,,,
371,1646,,,,,
365,1656,,,,,
371,1667,,,,,
364,1677,,,,,
369,1687,,,,,
375,1697,,,,,
423,1709,,,,,
390,1719,,,,,
342,1729,,,,,
340,1739,,,,,
362,1750,,,,,
361,1760,,,,,
367,1770,,,,,
365,1781,,,,,
369,1792,,,,,
368,1802,,,,,
369,1812,,,,,
370,1822,,,,,
370,1832,,,,,
373,1844,,,,,
371,1854,,,,,
375,1864,,,,,
372,1874,,,,,
379,1885,,,,,
373,1895,,,,,
380,1905,,,,,
372,1916,,,,,
380,1927,,,,,
373,1937,,,,,
379,1947,,,,,
371,1957,,,,,
375,1968,,,,,
366,1979,,,,,
372,1989,,,,,
366,1999,,,,,
371,2010,,,,,
368,2020,,,,,
371,2030,,,,,
369,2041,,,,,
370,2052,,,,,
369,2062,,,,,
368,2072,,,,,
371,2082,,,,,
367,2093,,,,,
370,2103,,,,,
365,2114,,,,,
370,2124,,,,,
364,2135,,,,,
372,2145,,,,,
363,2155,,,,,
373,2165,,,,,
368,2177,,,,,
375,2187,,,,,
366,2197,,,,,
370,2207,,,,,
363,2217,,,,,
369,2228,,,,,
364,2238,,,,,
369,2249,,,,,
365,2259,,,,,
365,2270,,,,,
387,2280,,,,,
425,2290,,,,,
374,2300,,,,,
332,2312,,,,,
347,2322,,,,,
357,2332,,,,,
365,2342,,,,,
361,2353,,,,,
367,2363,,,,,
362,2374,,,,,
369,2384,,,,,
363,2395,,,,,
371,2405,,,,,
364,2415,,,,,
373,2425,,,,,
367,2436,,,,,
375,2447,,,,,
370,2457,,,,,
378,2467,,,,,
373,2478,,,,,
377,2488,,,,,
373,2498,,,,,
377,2509,,,,,
374,2520,,,,,
374,2530,,,,,
370,2540,,,,,
366,2550,,,,,
367,2561,,,,,
364,2571,,,,,
367,2582,,,,,
363,2592,,,,,
369,2603,,,,,
363,2613,,,,,
369,2623,,,,,
362,2633,,,,,
370,2644,,,,,
362,2655,,,,,
369,2665,,,,,
362,2675,,,,,
370,2685,,,,,
362,2696,,,,,
368,2707,,,,,
364,2717,,,,,
371,2727,,,,,
367,2738,,,,,
368,2748,,,,,
363,2758,,,,,
364,2768,,,,,
364,2780,,,,,
363,2790,,,,,
365,2800,,,,,
362,2810,,,,,
363,2821,,,,,
376,2831,,,,,
417,2842,,,,,
371,2852,,,,,
335,2863,,,,,
339,2873,,,,,
361,2883,,,,,
357,2893,,,,,
367,2904,,,,,
360,2915,,,,,
369,2925,,,,,
363,2935,,,,,
370,2946,,,,,
365,2956,,,,,
372,2966,,,,,
368,2977,,,,,
373,2988,,,,,
372,2998,,,,,
375,3008,,,,,
376,3018,,,,,
376,3028,,,,,
377,3040,,,,,
375,3050,,,,,
379,3060,,,,,
374,3070,,,,,
378,3081,,,,,
368,3091,,,,,
373,3101,,,,,
363,3112,,,,,
370,3123,,,,,
363,3133,,,,,
371,3143,,,,,
363,3153,,,,,
371,3164,,,,,
365,3175,,,,,
371,3185,,,,,
366,3195,,,,,
371,3206,,,,,
366,3216,,,,,
369,3226,,,,,
368,3236,,,,,
371,3248,,,,,
370,3258,,,,,
369,3268,,,,,
368,3278,,,,,
363,3289,,,,,
367,3299,,,,,
362,3310,,,,,
367,3320,,,,,
361,3331,,,,,
364,3341,,,,,
363,3351,,,,,
407,3361,,,,,
391,3373,,,,,
348,3383,,,,,
336,3393,,,,,
360,3403,,,,,
358,3414,,,,,
366,3424,,,,,
361,3434,,,,,
367,3445,,,,,
364,3456,,,,,
369,3466,,,,,
366,3476,,,,,
369,3486,,,,,
369,3496,,,,,
370,3508,,,,,
372,3518,,,,,
371,3528,,,,,
375,3538,,,,,
372,3549,,,,,
377,3559,,,,,
371,3569,,,,,
377,3580,,,,,
370,3591,,,,,
377,3601,,,,,
367,3611,,,,,
372,3621,,,,,
363,3632,,,,,
370,3643,,,,,
363,3653,,,,,
371,3663,,,,,
364,3674,,,,,
370,3684,,,,,
365,3694,,,,,
369,3705,,,,,
366,3716,,,,,
368,3726,,,,,
367,3736,,,,,
368,3746,,,,,
370,3757,,,,,
369,3767,,,,,
369,3778,,,,,
363,3788,,,,,
367,3799,,,,,
361,3809,,,,,
367,3819,,,,,
361,3829,,,,,
367,3841,,,,,
353,3851,,,,,
377,3861,,,,,
410,3871,,,,,
385,3881,,,,,
331,3892,,,,,
347,3902,,,,,
356,3913,,,,,
365,3923,,,,,
360,3934,,,,,
366,3944,,,,,
365,3954,,,,,
368,3964,,,,,
367,3976,,,,,
367,3986,,,,,
369,3996,,,,,
368,4006,,,,,
371,4017,,,,,
369,4027,,,,,
375,4038,,,,,
370,4048,,,,,
377,4059,,,,,
370,4069,,,,,
377,4079,,,,,
370,4089,,,,,
377,4100,,,,,
368,4111,,,,,
374,4121,,,,,
365,4131,,,,,
371,4142,,,,,
364,4152,,,,,
370,4162,,,,,
365,4173,,,,,
370,4184,,,,,
367,4194,,,,,
369,4204,,,,,
368,4214,,,,,
368,4225,,,,,
368,4235,,,,,
367,4246,,,,,
371,4256,,,,,
368,4267,,,,,
373,4277,,,,,
366,4287,,,,,
370,4297,,,,,
361,4308,,,,,
368,4319,,,,,
361,4329,,,,,
369,4339,,,,,
361,4349,,,,,
363,4360,,,,,
364,4371,,,,,
412,4381,,,,,
391,4391,,,,,
341,4402,,,,,
339,4412,,,,,
361,4422,,,,,
362,4432,,,,,
367,4444,,,,,
366,4454,,,,,
368,4464,,,,,
369,4474,,,,,
367,4485,,,,,
370,4495,,,,,
367,4506,,,,,
373,4516,,,,,
368,4527,,,,,
375,4537,,,,,
369,4547,,,,,
377,4557,,,,,
370,4568,,,,,
378,4579,,,,,
371,4589,,,,,
379,4599,,,,,
372,4610,,,,,
378,4620,,,,,
369,4630,,,,,
373,4641,,,,,
367,4652,,,,,
371,4662,,,,,
368,4672,,,,,
371,4682,,,,,
369,4692,,,,,
370,4704,,,,,
370,4714,,,,,
369,4724,,,,,
372,4734,,,,,
368,4745,,,,,
373,4755,,,,,
369,4765,,,,,
376,4776,,,,,
370,4787,,,,,
377,4797,,,,,
368,4807,,,,,
374,4817,,,,,
366,4828,,,,,
373,4839,,,,,
367,4849,,,,,
373,4859,,,,,
365,4870,,,,,
366,4880,,,,,
389,4890,,,,,
422,4900,,,,,
364,4912,,,,,
340,4922,,,,,
355,4932,,,,,
367,4942,,,,,
369,4953,,,,,
370,4963,,,,,
372,4974,,,,,
370,4984,,,,,
374,4995,,,,,
369,5005,,,,,
375,5015,,,,,
370,5025,,,,,
377,5037,,,,,
371,5047,,,,,
379,5057,,,,,
372,5067,,,,,
381,5078,,,,,
373,5088,,,,,
381,5098,,,,,
375,5109,,,,,
382,5120,,,,,
377,5130,,,,,
380,5140,,,,,
373,5150,,,,,
375,5160,,,,,
372,5172,,,,,
374,5182,,,,,
374,5192,,,,,
374,5202,,,,,
376,5213,,,,,
373,5223,,,,,
377,5233,,,,,
372,5244,,,,,
377,5255,,,,,
372,5265,,,,,
380,5275,,,,,
374,5285,,,,,
384,5296,,,,,
378,5307,,,,,
386,5317,,,,,
377,5327,,,,,
384,5338,,,,,
377,5348,,,,,
383,5358,,,,,
380,5369,,,,,
385,5380,,,,,
379,5390,,,,,
388,5400,,,,,
425,5410,,,,,
429,5421,,,,,
369,5431,,,,,
362,5442,,,,,
382,5452,,,,,
387,5463,,,,,
391,5473,,,,,
388,5483,,,,,
394,5493,,,,,
388,5505,,,,,
395,5515,,,,,
387,5525,,,,,
395,5535,,,,,
387,5545,,,,,
395,5556,,,,,
388,5566,,,,,
396,5577,,,,,
389,5587,,,,,
396,5598,,,,,
390,5608,,,,,
396,5618,,,,,
392,5628,,,,,
395,5640,,,,,
390,5650,,,,,
388,5660,,,,,
383,5670,,,,,
380,5681,,,,,
380,5691,,,,,
376,5702,,,,,
379,5712,,,,,
374,5723,,,,,
379,5733,,,,,
372,5743,,,,,
377,5753,,,,,
369,5764,,,,,
375,5775,,,,,
367,5785,,,,,
375,5795,,,,,
367,5806,,,,,
375,5816,,,,,
367,5826,,,,,
371,5837,,,,,
363,5848,,,,,
367,5858,,,,,
362,5868,,,,,
365,5878,,,,,
362,5889,,,,,
363,5899,,,,,
356,5910,,,,,
381,5920,,,,,
409,5931,,,,,
357,5941,,,,,
330,5951,,,,,
343,5961,,,,,
359,5972,,,,,
355,5983,,,,,
362,5993,,,,,
357,6003,,,,,
364,6013,,,,,
357,6024,,,,,
365,6035,,,,,
357,6045,,,,,
366,6055,,,,,
359,6066,,,,,
367,6076,,,,,
361,6086,,,,,
368,6096,,,,,
364,6108,,,,,
369,6118,,,,,
367,6128,,,,,
370,6138,,,,,
370,6149,,,,,
369,6159,,,,,
367,6170,,,,,
363,6180,,,,,
364,6191,,,,,
358,6201,,,,,
362,6211,,,,,
357,6221,,,,,
363,6232,,,,,
356,6243,,,,,
363,6253,,,,,
355,6263,,,,,
362,6274,,,,,
354,6284,,,,,
362,6294,,,,,
355,6305,,,,,
363,6316,,,,,
358,6326,,,,,
364,6336,,,,,
357,6346,,,,,
360,6356,,,,,
356,6368,,,,,
359,6378,,,,,
357,6388,,,,,
358,6398,,,,,
358,6409,,,,,
351,6419,,,,,
375,6429,,,,,
404,6440,,,,,
363,6451,,,,,
323,6461,,,,,
345,6471,,,,,
351,6481,,,,,
360,6492,,,,,
354,6503,,,,,
363,6513,,,,,
356,6523,,,,,
364,6534,,,,,
358,6544,,,,,
365,6554,,,,,
360,6564,,,,,
367,6576,,,,,
363,6586,,,,,
368,6596,,,,,
366,6606,,,,,
370,6617,,,,,
369,6627,,,,,
370,6638,,,,,
371,6648,,,,,
371,6659,,,,,
373,6669,,,,,
368,6679,,,,,
370,6689,,,,,
363,6701,,,,,
368,6711,,,,,
361,6721,,,,,
368,6731,,,,,
361,6742,,,,,
368,6752,,,,,
360,6762,,,,,
368,6773,,,,,
361,6784,,,,,
367,6794,,,,,
361,6804,,,,,
368,6814,,,,,
363,6824,,,,,
369,6836,,,,,
366,6846,,,,,
367,6856,,,,,
363,6866,,,,,
363,6877,,,,,
363,6887,,,,,
363,6897,,,,,
365,6908,,,,,
361,6919,,,,,
359,6929,,,,,
366,6939,,,,,
410,6949,,,,,
377,6960,,,,,
337,6971,,,,,
338,6981,,,,,
362,6991,,,,,
358,7002,,,,,
367,7012,,,,,
360,7022,,,,,
368,7033,,,,,
363,7044,,,,,
369,7054,,,,,
365,7064,,,,,
370,7074,,,,,
367,7085,,,,,
371,7095,,,,,
370,7106,,,,,
372,7116,,,,,
373,7127,,,,,
372,7137,,,,,
375,7147,,,,,
372,7157,,,,,
377,7169,,,,,
372,7179,,,,,
377,7189,,,,,
368,7199,,,,,
373,7209,,,,,
365,7220,,,,,
372,7230,,,,,
364,7241,,,,,
371,7251,,,,,
364,7262,,,,,
371,7272,,,,,
364,7282,,,,,
371,7292,,,,,
364,7304,,,,,
368,7314,,,,,
364,7324,,,,,
369,7334,,,,,
367,7345,,,,,
370,7355,,,,,
370,7366,,,,,
367,7376,,,,,
367,7387,,,,,
363,7397,,,,,
367,7407,,,,,
363,7417,,,,,
368,7428,,,,,
361,7439,,,,,
362,7449,,,,,
380,7459,,,,,
419,7470,,,,,
361,7480,,,,,
338,7490,,,,,
346,7501,,,,,
365,7512,,,,,
361,7522,,,,,
368,7532,,,,,
363,7542,,,,,
370,7553,,,,,
366,7563,,,,,
370,7574,,,,,
369,7584,,,,,
371,7595,,,,,
371,7605,,,,,
371,7615,,,,,
374,7625,,,,,
373,7636,,,,,
378,7647,,,,,
375,7657,,,,,
381,7667,,,,,
377,7677,,,,,
385,7688,,,,,
377,7699,,,,,
383,7709,,,,,
373,7719,,,,,
379,7730,,,,,
370,7740,,,,,
377,7750,,,,,
371,7760,,,,,
378,7772,,,,,
372,7782,,,,,
377,7792,,,,,
371,7802,,,,,
375,7813,,,,,
372,7823,,,,,
374,7834,,,,,
373,7844,,,,,
374,7855,,,,,
375,7865,,,,,
373,7875,,,,,
376,7885,,,,,
369,7896,,,,,
373,7907,,,,,
366,7917,,,,,
372,7927,,,,,
365,7938,,,,,
372,7948,,,,,
362,7958,,,,,
369,7969,,,,,
393,7980,,,,,
413,7990,,,,,
349,8000,,,,,
340,8010,,,,,
352,8020,,,,,
367,8032,,,,,
363,8042,,,,,
367,8052,,,,,
366,8062,,,,,
369,8073,,,,,
368,8083,,,,,
368,8093,,,,,
369,8104,,,,,
368,8115,,,,,
371,8125,,,,,
368,8135,,,,,
374,8145,,,,,
369,8156,,,,,
376,8167,,,,,
370,8177,,,,,
378,8187,,,,,
372,8198,,,,,
380,8208,,,,,
371,8218,,,,,
375,8228,,,,,
364,8240,,,,,
369,8250,,,,,
363,8260,,,,,
369,8270,,,,,
362,8281,,,,,
367,8291,,,,,
364,8302,,,,,
366,8312,,,,,
365,8323,,,,,
365,8333,,,,,
364,8343,,,,,
362,8353,,,,,
366,8365,,,,,
362,8375,,,,,
367,8385,,,,,
363,8395,,,,,
367,8406,,,,,
358,8416,,,,,
364,8426,,,,,
356,8437,,,,,
363,8448,,,,,
356,8458,,,,,
363,8468,,,,,
352,8478,,,,,
369,8488,,,,,
398,8500,,,,,
383,8510,,,,,
329,8520,,,,,
339,8530,,,,,
352,8541,,,,,
360,8551,,,,,
359,8561,,,,,
361,8572,,,,,
362,8583,,,,,
362,8593,,,,,
364,8603,,,,,
362,8613,,,,,
367,8624,,,,,
362,8635,,,,,
369,8645,,,,,
363,8655,,,,,
371,8666,,,,,
365,8676,,,,,
373,8686,,,,,
366,8697,,,,,
376,8708,,,,,
370,8718,,,,,
377,8728,,,,,
369,8738,,,,,
372,8749,,,,,
364,8759,,,,,
368,8770,,,,,
363,8780,,,,,
367,8791,,,,,
365,8801,,,,,
366,8811,,,,,
366,8821,,,,,
365,8833,,,,,
366,8843,,,,,
363,8853,,,,,
366,8863,,,,,
360,8873,,,,,
367,8884,,,,,
361,8894,,,,,
369,8905,,,,,
362,8915,,,,,
367,8926,,,,,
358,8936,,,,,
365,8946,,,,,
358,8956,,,,,
365,8968,,,,,
359,8978,,,,,
364,8988,,,,,
355,8998,,,,,
381,9009,,,,,
407,9019,,,,,
367,9030,,,,,
329,9040,,,,,
347,9051,,,,,
359,9061,,,,,
361,9071,,,,,
363,9081,,,,,
362,9092,,,,,
366,9103,,,,,
362,9113,,,,,
368,9123,,,,,
362,9134,,,,,
369,9144,,,,,
363,9154,,,,,
372,9165,,,,,
365,9176,,,,,
373,9186,,,,,
367,9196,,,,,
375,9206,,,,,
368,9217,,,,,
377,9227,,,,,
372,9238,,,,,
376,9248,,,,,
370,9259,,,,,
371,9269,,,,,
366,9279,,,,,
367,9289,,,,,
366,9300,,,,,
366,9311,,,,,
367,9321,,,,,
364,9331,,,,,
368,9341,,,,,
363,9352,,,,,
368,9363,,,,,
361,9373,,,,,
366,9383,,,,,
359,9394,,,,,
368,9404,,,,,
361,9414,,,,,
370,9424,,,,,
362,9436,,,,,
367,9446,,,,,
358,9456,,,,,
365,9466,,,,,
358,9477,,,,,
364,9487,,,,,
359,9498,,,,,
363,9508,,,,,
357,9519,,,,,
384,9529,,,,,
407,9539,,,,,
358,9549,,,,,
331,9560,,,,,
346,9571,,,,,
360,9581,,,,,
358,9591,,,,,
364,9602,,,,,
359,9612,,,,,
367,9622,,,,,
360,9633,,,,,
368,9644,,,,,
361,9654,,,,,
370,9664,,,,,
362,9674,,,,,
371,9684,,,,,
365,9696,,,,,
373,9706,,,,,
367,9716,,,,,
374,9726,,,,,
369,9737,,,,,
374,9747,,,,,
372,9757,,,,,
375,9768,,,,,
372,9779,,,,,
370,9789,,,,,
369,9799,,,,,
366,9809,,,,,
369,9820,,,,,
365,9831,,,,,
370,9841,,,,,
364,9851,,,,,
369,9862,,,,,
362,9872,,,,,
369,9882,,,,,
361,9892,,,,,
368,9904,,,,,
360,9914,,,,,
369,9924,,,,,
363,9934,,,,,
371,9945,,,,,
365,9955,,,,,
368,9966,,,,,
362,9976,,,,,
366,9987,,,,,
362,9997,,,,,
365,10007,,,,,
364,10018,,,,,
359,10031,,,,,
363,10042,,,,,
389,10053,,,,,
400,10064,,,,,
336,10076,,,,,
341,10087,,,,,
359,10099,,,,,
357,10110,,,,,
365,10122,,,,,
358,10133,,,,,
366,10144,,,,,
362,10156,,,,,
365,10168,,,,,
367,10179,,,,,
362,10190,,,,,
370,10202,,,,,
363,10213,,,,,
371,10224,,,,,
368,10236,,,,,
370,10248,,,,,
372,10259,,,,,
368,10270,,,,,
375,10281,,,,,
367,10293,,,,,
372,10305,,,,,
367,10316,,,,,
366,10328,,,,,
368,10339,,,,,
362,10350,,,,,
370,10362,,,,,
363,10374,,,,,
370,10385,,,,,
366,10396,,,,,
367,10407,,,,,
369,10419,,,,,
363,10431,,,,,
370,10442,,,,,
364,10454,,,,,
371,10465,,,,,
370,10476,,,,,
368,10487,,,,,
368,10500,,,,,
360,10511,,,,,
367,10522,,,,,
359,10533,,,,,
364,10545,,,,,
361,10556,,,,,
355,10568,,,,,
392,10579,,,,,
399,10591,,,,,
345,10602,,,,,
333,10613,,,,,
357,10625,,,,,
359,10637,,,,,
359,10648,,,,,
365,10659,,,,,
358,10671,,,,,
367,10682,,,,,
361,10694,,,,,
367,10705,,,,,
367,10717,,,,,
364,10728,,,,,
371,10739,,,,,
364,10750,,,,,
373,10763,,,,,
369,10774,,,,,
373,10785,,,,,
373,10797,,,,,
370,10808,,,,,
375,10819,,,,,
365,10831,,,,,
370,10843,,,,,
363,10854,,,,,
366,10865,,,,,
366,10876,,,,,
361,10888,,,,,
368,10900,,,,,
359,10911,,,,,
367,10923,,,,,
362,10934,,,,,
364,10945,,,,,
364,10956,,,,,
359,10969,,,,,
367,10980,,,,,
361,10991,,,,,
370,11002,,,,,
367,11014,,,,,
366,11025,,,,,
367,11037,,,,,
361,11048,,,,,
369,11060,,,,,
362,11071,,,,,
368,11082,,,,,
362,11095,,,,,
375,11106,,,,,
420,11117,,,,,
366,11128,,,,,
336,11140,,,,,
348,11151,,,,,
365,11163,,,,,
364,11174,,,,,
364,11186,,,,,
369,11197,,,,,
363,11208,,,,,
370,11219,,,,,
364,11232,,,,,
370,11243,,,,,
369,11254,,,,,
368,11266,,,,,
372,11277,,,,,
366,11288,,,,,
375,11300,,,,,
368,11312,,,,,
374,11323,,,,,
375,11334,,,,,
372,11345,,,,,
374,11357,,,,,
363,11369,,,,,
369,11380,,,,,
361,11392,,,,,
366,11403,,,,,
365,11414,,,,,
361,11426,,,,,
366,11438,,,,,
358,11449,,,,,
365,11460,,,,,
359,11471,,,,,
363,11483,,,,,
362,11495,,,,,
359,11506,,,,,
366,11517,,,,,
360,11529,,,,,
368,11540,,,,,
361,11551,,,,,
363,11564,,,,,
362,11575,,,,,
358,11586,,,,,
364,11597,,,,,
357,11609,,,,,
363,11620,,,,,
363,11632,,,,,
407,11643,,,,,
377,11655,,,,,
325,11666,,,,,
346,11677,,,,,
353,11688,,,,,
363,11701,,,,,
360,11712,,,,,
363,11723,,,,,
366,11735,,,,,
361,11746,,,,,
369,11757,,,,,
361,11769,,,,,
369,11781,,,,,
366,11792,,,,,
368,11803,,,,,
372,11814,,,,,
367,11827,,,,,
376,11838,,,,,
369,11849,,,,,
377,11860,,,,,
374,11872,,,,,
371,11883,,,,,
371,11895,,,,,
361,11907,,,,,
367,11918,,,,,
359,11929,,,,,
365,11940,,,,,
363,11952,,,,,
362,11964,,,,,
365,11975,,,,,
358,11986,,,,,
366,11998,,,,,
358,12009,,,,,
364,12020,,,,,
363,12033,,,,,
361,12044,,,,,
367,12055,,,,,
360,12066,,,,,
365,12078,,,,,
356,12089,,,,,
361,12101,,,,,
360,12112,,,,,
358,12124,,,,,
362,12135,,,,,
351,12146,,,,,
372,12158,,,,,
403,12170,,,,,
360,12181,,,,,
327,12192,,,,,
344,12204,,,,,
360,12215,,,,,
353,12227,,,,,
362,12238,,,,,
358,12250,,,,,
362,12261,,,,,
363,12272,,,,,
359,12283,,,,,
367,12296,,,,,
359,12307,,,,,
368,12318,,,,,
364,12329,,,,,
368,12341,,,,,
369,12352,,,,,
365,12364,,,,,
373,12376,,,,,
366,12387,,,,,
373,12398,,,,,
366,12409,,,,,
365,12421,,,,,
364,12433,,,,,
358,12444,,,,,
366,12455,,,,,
357,12467,,,,,
365,12478,,,,,
361,12489,,,,,
362,12502,,,,,
363,12513,,,,,
358,12524,,,,,
364,12535,,,,,
356,12547,,,,,
364,12559,,,,,
361,12570,,,,,
362,12581,,,,,
365,12593,,,,,
357,12604,,,,,
363,12615,,,,,
355,12627,,,,,
362,12639,,,,,
359,12650,,,,,
359,12661,,,,,
358,12673,,,,,
370,12684,,,,,
411,12696,,,,,
350,12707,,,,,
331,12719,,,,,
350,12730,,,,,
356,12741,,,,,
361,12752,,,,,
355,12765,,,,,
365,12776,,,,,
359,12787,,,,,
364,12798,,,,,
364,12810,,,,,
362,12821,,,,,
367,12833,,,,,
361,12845,,,,,
369,12856,,,,,
364,12867,,,,,
369,12878,,,,,
368,12891,,,,,
366,12902,,,,,
373,12913,,,,,
365,12924,,,,,
371,12936,,,,,
362,12947,,,,,
365,12959,,,,,
364,12971,,,,,
360,12982,,,,,
366,12993,,,,,
358,13004,,,,,
365,13016,,,,,
360,13028,,,,,
363,13039,,,,,
363,13050,,,,,
357,13062,,,,,
363,13073,,,,,
357,13084,,,,,
366,13096,,,,,
362,13108,,,,,
364,13119,,,,,
362,13130,,,,,
355,13142,,,,,
363,13153,,,,,
354,13165,,,,,
362,13176,,,,,
357,13188,,,,,
354,13199,,,,,
379,13210,,,,,
405,13221,,,,,
353,13234,,,,,
326,13245,,,,,
353,13256,,,,,
356,13267,,,,,
358,13279,,,,,
361,13291,,,,,
357,13302,,,,,
364,13314,,,,,
357,13325,,,,,
365,13336,,,,,
362,13347,,,,,
362,13360,,,,,
367,13371,,,,,
361,13382,,,,,
369,13393,,,,,
363,13405,,,,,
370,13416,,,,,
368,13428,,,,,
368,13440,,,,,
372,13451,,,,,
363,13462,,,,,
368,13473,,,,,
360,13485,,,,,
365,13497,,,,,
363,13508,,,,,
361,13519,,,,,
366,13531,,,,,
358,13542,,,,,
366,13553,,,,,
359,13565,,,,,
363,13577,,,,,
361,13588,,,,,
359,13599,,,,,
366,13611,,,,,
359,13623,,,,,
368,13634,,,,,
360,13645,,,,,
362,13657,,,,,
361,13668,,,,,
357,13679,,,,,
363,13691,,,,,
355,13703,,,,,
361,13714,,,,,
354,13725,,,,,
394,13736,,,,,
395,13748,,,,,
331,13760,,,,,
341,13771,,,,,
350,13783,,,,,
362,13794,,,,,
358,13805,,,,,
362,13816,,,,,
363,13829,,,,,
359,13840,,,,,
366,13851,,,,,
359,13862,,,,,
367,13874,,,,,
364,13885,,,,,
367,13897,,,,,
369,13908,,,,,
365,13920,,,,,
372,13931,,,,,
365,13942,,,,,
374,13954,,,,,
370,13966,,,,,
371,13977,,,,,
370,13988,,,,,
361,14000,,,,,
368,14011,,,,,
360,14023,,,,,
367,14034,,,,,
364,14046,,,,,
365,14057,,,,,
368,14068,,,,,
361,14080,,,,,
368,14092,,,,,
360,14103,,,,,
367,14114,,,,,
365,14126,,,,,
364,14137,,,,,
370,14148,,,,,
363,14160,,,,,
368,14172,,,,,
359,14183,,,,,
364,14194,,,,,
362,14205,,,,,
361,14217,,,,,
366,14229,,,,,
355,14240,,,,,
370,14252,,,,,
406,14263,,,,,
376,14274,,,,,
329,14285,,,,,
345,14298,,,,,
362,14309,,,,,
356,14320,,,,,
366,14331,,,,,
361,14343,,,,,
366,14355,,,,,
366,14366,,,,,
363,14377,,,,,
369,14389,,,,,
362,14400,,,,,
371,14411,,,,,
366,14424,,,,,
371,14435,,,,,
372,14446,,,,,
368,14457,,,,,
376,14469,,,,,
369,14480,,,,,
376,14492,,,,,
369,14503,,,,,
369,14515,,,,,
367,14526,,,,,
361,14537,,,,,
367,14548,,,,,
359,14561,,,,,
366,14572,,,,,
362,14583,,,,,
364,14595,,,,,
365,14606,,,,,
359,14617,,,,,
366,14629,,,,,
358,14641,,,,,
366,14652,,,,,
362,14663,,,,,
364,14674,,,,,
365,14686,,,,,
356,14698,,,,,
363,14709,,,,,
355,14721,,,,,
362,14732,,,,,
358,14743,,,,,
357,14755,,,,,
358,14767,,,,,
387,14778,,,,,
394,14789,,,,,
326,14800,,,,,
337,14812,,,,,
353,14824,,,,,
358,14835,,,,,
362,14846,,,,,
357,14858,,,,,
365,14869,,,,,
359,14880,,,,,
366,14893,,,,,
365,14904,,,,,
364,14915,,,,,
369,14926,,,,,
363,14938,,,,,
373,14949,,,,,
367,14961,,,,,
373,14972,,,,,
373,14984,,,,,
373,14995,,,,,
377,15006,,,,,
368,15017,,,,,
373,15030,,,,,
363,15041,,,,,
367,15052,,,,,
365,15064,,,,,
363,15075,,,,,
368,15087,,,,,
361,15098,,,,,
368,15110,,,,,
362,15121,,,,,
366,15132,,,,,
365,15143,,,,,
361,15156,,,,,
368,15167,,,,,
361,15178,,,,,
370,15190,,,,,
363,15201,,,,,
364,15212,,,,,
363,15224,,,,,
358,15236,,,,,
364,15247,,,,,
356,15258,,,,,
364,15269,,,,,
354,15281,,,,,
382,15293,,,,,
406,15304,,,,,
342,15315,,,,,
335,15327,,,,,
348,15338,,,,,
362,15349,,,,,
359,15362,,,,,
362,15373,,,,,
364,15384,,,,,
359,15395,,,,,
367,15407,,,,,
360,15418,,,,,
368,15430,,,,,
365,15441,,,,,
367,15453,,,,,
370,15464,,,,,
365,15475,,,,,
373,15488,,,,,
366,15499,,,,,
374,15510,,,,,
372,15521,,,,,
371,15533,,,,,
371,15544,,,,,
361,15556,,,,,
368,15567,,,,,
359,15579,,,,,
366,15590,,,,,
363,15601,,,,,
363,15612,,,,,
366,15625,,,,,
359,15636,,,,,
366,15647,,,,,
358,15659,,,,,
364,15670,,,,,
363,15681,,,,,
362,15693,,,,,
367,15705,,,,,
360,15716,,,,,
366,15727,,,,,
357,15738,,,,,
363,15750,,,,,
362,15762,,,,,
361,15773,,,,,
366,15784,,,,,
354,15796,,,,,
375,15807,,,,,
409,15819,,,,,
368,15831,,,,,
333,15842,,,,,
349,15853,,,,,
365,15864,,,,,
359,15876,,,,,
368,15888,,,,,
364,15899,,,,,
368,15910,,,,,
368,15922,,,,,
365,15933,,,,,
372,15944,,,,,
365,15956,,,,,
374,15968,,,,,
369,15979,,,,,
373,15990,,,,,
374,16002,,,,,
370,16013,,,,,
377,16025,,,,,
370,16036,,,,,
378,16048,,,,,
371,16059,,,,,
371,16070,,,,,
370,16081,,,,,
364,16094,,,,,
371,16105,,,,,
363,16116,,,,,
371,16128,,,,,
367,16139,,,,,
367,16150,,,,,
369,16162,,,,,
363,16174,,,,,
369,16185,,,,,
361,16196,,,,,
369,16207,,,,,
366,16220,,,,,
368,16231,,,,,
370,16242,,,,,
360,16253,,,,,
366,16265,,,,,
357,16276,,,,,
364,16288,,,,,
360,16300,,,,,
361,16311,,,,,
359,16322,,,,,
363,16333,,,,,
412,16345,,,,,
365,16357,,,,,
331,16368,,,,,
346,16379,,,,,
355,16391,,,,,
361,16402,,,,,
355,16413,,,,,
364,16425,,,,,
357,16437,,,,,
363,16448,,,,,
362,16459,,,,,
361,16471,,,,,
366,16482,,,,,
359,16494,,,,,
369,16505,,,,,
362,16517,,,,,
368,16528,,,,,
366,16539,,,,,
364,16551,,,,,
371,16563,,,,,
363,16574,,,,,
369,16585,,,,,
360,16596,,,,,
363,16608,,,,,
361,16620,,,,,
357,16631,,,,,
363,16643,,,,,
355,16654,,,,,
363,16665,,,,,
357,16676,,,,,
360,16689,,,,,
360,16700,,,,,
356,16711,,,,,
361,16722,,,,,
353,16734,,,,,
362,16745,,,,,
358,16757,,,,,
361,16769,,,,,
359,16780,,,,,
353,16791,,,,,
359,16802,,,,,
351,16814,,,,,
359,16826,,,,,
354,16837,,,,,
355,16848,,,,,
354,16860,,,,,
384,16871,,,,,
397,16882,,,,,
327,16894,,,,,
334,16906,,,,,
348,16917,,,,,
353,16928,,,,,
357,16940,,,,,
352,16952,,,,,
360,16963,,,,,
353,16974,,,,,
361,16986,,,,,
358,16997,,,,,
360,17008,,,,,
363,17020,,,,,
359,17032,,,,,
367,17043,,,,,
361,17054,,,,,
367,17065,,,,,
365,17077,,,,,
366,17089,,,,,
370,17100,,,,,
362,17112,,,,,
366,17123,,,,,
356,17134,,,,,
361,17145,,,,,
359,17158,,,,,
357,17169,,,,,
361,17180,,,,,
354,17191,,,,,
362,17203,,,,,
355,17214,,,,,
360,17226,,,,,
359,17238,,,,,
356,17249,,,,,
361,17260,,,,,
354,17271,,,,,
363,17284,,,,,
358,17295,,,,,
361,17306,,,,,
359,17317,,,,,
354,17329,,,,,
360,17340,,,,,
353,17352,,,,,
361,17363,,,,,
355,17375,,,,,
355,17386,,,,,
377,17397,,,,,
403,17409,,,,,
352,17421,,,,,
323,17432,,,,,
351,17443,,,,,
353,17455,,,,,
359,17466,,,,,
361,17477,,,,,
358,17489,,,,,
365,17501,,,,,
357,17512,,,,,
366,17523,,,,,
362,17534,,,,,
366,17546,,,,,
368,17558,,,,,
364,17569,,,,,
371,17581,,,,,
364,17592,,,,,
371,17603,,,,,
368,17614,,,,,
370,17627,,,,,
372,17638,,,,,
363,17649,,,,,
367,17660,,,,,
357,17672,,,,,
363,17684,,,,,
359,17695,,,,,
361,17707,,,,,
363,17718,,,,,
356,17729,,,,,
364,17740,,,,,
356,17753,,,,,
363,17764,,,,,
359,17775,,,,,
359,17786,,,,,
363,17798,,,,,
357,17809,,,,,
366,17821,,,,,
357,17832,,,,,
361,17844,,,,,
357,17855,,,,,
356,17866,,,,,
361,17878,,,,,
353,17890,,,,,
361,17901,,,,,
351,17912,,,,,
367,17924,,,,,
402,17935,,,,,
364,17946,,,,,
328,17958,,,,,
338,17970,,,,,
358,17981,,,,,
354,17992,,,,,
361,18003,,,,,
360,18016,,,,,
359,18027,,,,,
365,18038,,,,,
358,18050,,,,,
367,18061,,,,,
361,18072,,,,,
366,18084,,,,,
367,18096,,,,,
365,18107,,,,,
372,18118,,,,,
363,18129,,,,,
372,18141,,,,,
368,18153,,,,,
371,18164,,,,,
370,18176,,,,,
363,18187,,,,,
367,18198,,,,,
357,18209,,,,,
366,18222,,,,,
361,18233,,,,,
365,18244,,,,,
366,18255,,,,,
362,18267,,,,,
369,18278,,,,,
361,18290,,,,,
368,18301,,,,,
363,18313,,,,,
367,18324,,,,,
369,18335,,,,,
364,18347,,,,,
369,18359,,,,,
358,18370,,,,,
365,18381,,,,,
361,18393,,,,,
362,18404,,,,,
364,18416,,,,,
357,18427,,,,,
360,18439,,,,,
374,18450,,,,,
408,18461,,,,,
349,18472,,,,,
331,18485,,,,,
353,18496,,,,,
354,18507,,,,,
363,18519,,,,,
356,18530,,,,,
364,18541,,,,,
362,18553,,,,,
361,18565,,,,,
365,18576,,,,,
358,18587,,,,,
367,18598,,,,,
360,18610,,,,,
368,18622,,,,,
366,18633,,,,,
365,18644,,,,,
369,18656,,,,,
362,18667,,,,,
371,18678,,,,,
363,18691,,,,,
366,18702,,,,,
362,18713,,,,,
358,18724,,,,,
363,18736,,,,,
356,18748,,,,,
364,18759,,,,,
358,18770,,,,,
363,18782,,,,,
362,18793,,,,,
359,18804,,,,,
364,18817,,,,,
355,18828,,,,,
364,18839,,,,,
359,18850,,,,,
365,18862,,,,,
364,18873,,,,,
357,18885,,,,,
361,18896,,,,,
353,18908,,,,,
361,18919,,,,,
355,18930,,,,,
359,18941,,,,,
357,18954,,,,,
354,18965,,,,,
400,18976,,,,,
375,18988,,,,,
333,18999,,,,,
337,19010,,,,,
355,19022,,,,,
357,19034,,,,,
354,19045,,,,,
362,19056,,,,,
354,19067,,,,,
362,19079,,,,,
359,19091,,,,,
361,19102,,,,,
364,19113,,,,,
359,19125,,,,,
367,19136,,,,,
360,19148,,,,,
368,19160,,,,,
364,19171,,,,,
365,19182,,,,,
368,19193,,,,,
362,19205,,,,,
369,19217,,,,,
359,19228,,,,,
365,19239,,,,,
360,19251,,,,,
361,19262,,,,,
364,19273,,,,,
357,19286,,,,,
365,19297,,,,,
357,19308,,,,,
364,19319,,,,,
360,19331,,,,,
359,19342,,,,,
363,19354,,,,,
357,19365,,,,,
367,19377,,,,,
360,19388,,,,,
363,19399,,,,,
359,19410,,,,,
356,19423,,,,,
361,19434,,,,,
353,19445,,,,,
361,19457,,,,,
352,19468,,,,,
354,19480,,,,,
387,19491,,,,,
392,19503,,,,,
337,19514,,,,,
330,19525,,,,,
356,19536,,,,,
352,19549,,,,,
358,19560,,,,,
359,19571,,,,,
357,19582,,,,,
363,19594,,,,,
355,19605,,,,,
364,19617,,,,,
358,19629,,,,,
364,19640,,,,,
365,19651,,,,,
361,19662,,,,,
368,19674,,,,,
360,19686,,,,,
369,19697,,,,,
363,19708,,,,,
367,19720,,,,,
367,19731,,,,,
360,19742,,,,,
364,19755,,,,,
355,19766,,,,,
363,19777,,,,,
358,19788,,,,,
360,19800,,,,,
361,19811,,,,,
356,19823,,,,,
363,19834,,,,,
354,19846,,,,,
362,19857,,,,,
358,19868,,,,,
360,19880,,,,,
363,19892,,,,,
358,19903,,,,,
362,19914,,,,,
352,19926,,,,,
359,19937,,,,,
356,19949,,,,,
356,19960,,,,,
359,19972,,,,,
349,19983,,,,,
357,19994,,,,,
391,20005,,,,,
385,20018,,,,,
326,20029,,,,,
335,20040,,,,,
354,20051,,,,,
351,20063,,,,,
360,20074,,,,,
353,20086,,,,,
361,20098,,,,,
360,20109,,,,,
359,20120,,,,,
364,20131,,,,,
357,20143,,,,,
367,20155,,,,,
360,20166,,,,,
367,20177,,,,,
367,20189,,,,,
365,20200,,,,,
370,20212,,,,,
363,20224,,,,,
371,20235,,,,,
362,20246,,,,,
365,20257,,,,,
361,20269,,,,,
357,20281,,,,,
361,20292,,,,,
354,20303,,,,,
363,20315,,,,,
356,20326,,,,,
361,20337,,,,,
360,20349,,,,,
356,20361,,,,,
362,20372,,,,,
355,20383,,,,,
364,20395,,,,,
359,20406,,,,,
362,20418,,,,,
359,20429,,,,,
353,20441,,,,,
360,20452,,,,,
351,20463,,,,,
359,20474,,,,,
354,20487,,,,,
353,20498,,,,,
363,20509,,,,,
402,20520,,,,,
368,20532,,,,,
319,20543,,,,,
344,20555,,,,,
352,20567,,,,,
356,20578,,,,,
358,20589,,,,,
354,20600,,,,,
362,20613,,,,,
355,20624,,,,,
363,20635,,,,,
360,20646,,,,,
362,20658,,,,,
365,20669,,,,,
360,20681,,,,,
369,20692,,,,,
362,20704,,,,,
370,20715,,,,,
367,20726,,,,,
369,20738,,,,,
370,20750,,,,,
361,20761,,,,,
366,20772,,,,,
355,20784,,,,,
361,20795,,,,,
358,20806,,,,,
358,20818,,,,,
361,20830,,,,,
354,20841,,,,,
363,20852,,,,,
355,20864,,,,,
361,20875,,,,,
359,20887,,,,,
359,20898,,,,,
364,20910,,,,,
357,20921,,,,,
361,20932,,,,,
352,20944,,,,,
358,20956,,,,,
356,20967,,,,,
354,20978,,,,,
359,20989,,,,,
348,21001,,,,,
358,21013,,,,,
391,21024,,,,,
376,21036,,,,,
325,21047,,,,,
336,21058,,,,,
355,21069,,,,,
350,21082,,,,,
360,21093,,,,,
354,21104,,,,,
360,21115,,,,,
361,21127,,,,,
358,21138,,,,,
364,21150,,,,,
356,21161,,,,,
366,21173,,,,,
361,21184,,,,,
366,21195,,,,,
367,21207,,,,,
363,21219,,,,,
370,21230,,,,,
363,21241,,,,,
371,21253,,,,,
363,21264,,,,,
363,21275,,,,,
361,21287,,,,,
356,21299,,,,,
362,21310,,,,,
355,21321,,,,,
362,21332,,,,,
357,21345,,,,,
360,21356,,,,,
361,21367,,,,,
355,21379,,,,,
363,21390,,,,,
356,21401,,,,,
364,21413,,,,,
360,21425,,,,,
358,21436,,,,,
358,21447,,,,,
352,21458,,,,,
360,21470,,,,,
351,21482,,,,,
358,21493,,,,,
352,21505,,,,,
354,21516,,,,,
395,21527,,,,,
370,21538,,,,,
329,21551,,,,,
335,21562,,,,,
356,21573,,,,,
356,21584,,,,,
356,21596,,,,,
362,21607,,,,,
355,21619,,,,,
364,21630,,,,,
357,21642,,,,,
364,21653,,,,,
362,21664,,,,,
362,21677,,,,,
368,21688,,,,,
361,21699,,,,,
370,21710,,,,,
363,21722,,,,,
369,21733,,,,,
368,21745,,,,,
366,21756,,,,,
369,21768,,,,,
359,21779,,,,,
365,21790,,,,,
356,21801,,,,,
362,21814,,,,,
360,21825,,,,,
358,21836,,,,,
363,21848,,,,,
355,21859,,,,,
363,21870,,,,,
356,21882,,,,,
362,21894,,,,,
363,21905,,,,,
360,21916,,,,,
365,21927,,,,,
353,21939,,,,,
360,21951,,,,,
354,21962,,,,,
358,21974,,,,,
358,21985,,,,,
353,21996,,,,,
353,22007,,,,,
357,22020,,,,,
407,22031,,,,,
358,22042,,,,,
328,22053,,,,,
346,22065,,,,,
350,22077,,,,,
358,22088,,,,,
351,22099,,,,,
360,22111,,,,,
356,22122,,,,,
359,22133,,,,,
361,22146,,,,,
356,22157,,,,,
364,22168,,,,,
356,22179,,,,,
365,22191,,,,,
362,22202,,,,,
363,22214,,,,,
365,22225,,,,,
360,22237,,,,,
368,22248,,,,,
360,22259,,,,,
366,22270,,,,,
360,22283,,,,,
359,22294,,,,,
361,22305,,,,,
355,22317,,,,,
363,22328,,,,,
355,22339,,,,,
362,22351,,,,,
359,22363,,,,,
358,22374,,,,,
362,22385,,,,,
356,22396,,,,,
366,22409,,,,,
357,22420,,,,,
361,22431,,,,,
356,22443,,,,,
354,22454,,,,,
358,22465,,,,,
351,22477,,,,,
359,22489,,,,,
349,22500,,,,,
350,22511,,,,,
383,22522,,,,,
388,22534,,,,,
335,22546,,,,,
328,22557,,,,,
353,22568,,,,,
349,22580,,,,,
356,22591,,,,,
356,22602,,,,,
354,22615,,,,,
361,22626,,,,,
353,22637,,,,,
363,22648,,,,,
357,22660,,,,,
362,22671,,,,,
362,22683,,,,,
360,22694,,,,,
366,22706,,,,,
358,22717,,,,,
367,22728,,,,,
362,22739,,,,,
366,22752,,,,,
364,22763,,,,,
358,22774,,,,,
362,22786,,,,,
352,22797,,,,,
360,22809,,,,,
355,22820,,,,,
359,22832,,,,,
359,22843,,,,,
354,22854,,,,,
361,22865,,,,,
352,22878,,,,,
361,22889,,,,,
358,22900,,,,,
362,22912,,,,,
360,22923,,,,,
352,22934,,,,,
358,22946,,,,,
350,22958,,,,,
357,22969,,,,,
353,22980,,,,,
354,22991,,,,,
350,23003,,,,,
359,23015,,,,,
407,23026,,,,,
349,23037,,,,,
326,23049,,,,,
341,23060,,,,,
352,23071,,,,,
355,23084,,,,,
351,23095,,,,,
360,23106,,,,,
353,23117,,,,,
360,23129,,,,,
358,23141,,,,,
358,23152,,,,,
363,23163,,,,,
356,23175,,,,,
366,23186,,,,,
359,23197,,,,,
367,23209,,,,,
364,23221,,,,,
364,23232,,,,,
369,23243,,,,,
360,23255,,,,,
366,23266,,,,,
355,23278,,,,,
359,23289,,,,,
356,23301,,,,,
355,23312,,,,,
360,23323,,,,,
352,23334,,,,,
361,23347,,,,,
355,23358,,,,,
360,23369,,,,,
359,23380,,,,,
357,23392,,,,,
364,23403,,,,,
353,23415,,,,,
359,23427,,,,,
351,23438,,,,,
356,23449,,,,,
355,23460,,,,,
352,23472,,,,,
357,23484,,,,,
345,23495,,,,,
359,23506,,,,,
391,23518,,,,,
364,23529,,,,,
323,23541,,,,,
337,23553,,,,,
354,23564,,,,,
349,23575,,,,,
359,23586,,,,,
354,23598,,,,,
358,23610,,,,,
359,23621,,,,,
355,23632,,,,,
363,23644,,,,,
355,23655,,,,,
365,23666,,,,,
361,23678,,,,,
364,23690,,,,,
366,23701,,,,,
361,23712,,,,,
369,23724,,,,,
362,23735,,,,,
369,23747,,,,,
362,23758,,,,,
361,23770,,,,,
360,23781,,,,,
354,23792,,,,,
361,23803,,,,,
353,23816,,,,,
361,23827,,,,,
358,23838,,,,,
360,23849,,,,,
361,23861,,,,,
356,23873,,,,,
365,23884,,,,,
357,23896,,,,,
363,23907,,,,,
356,23918,,,,,
355,23929,,,,,
357,23942,,,,,
350,23953,,,,,
358,23964,,,,,
350,23975,,,,,
352,23987,,,,,
357,23998,,,,,
394,24010,,,,,
362,24022,,,,,
320,24033,,,,,
347,24044,,,,,
349,24055,,,,,
358,24067,,,,,
357,24079,,,,,
356,24090,,,,,
361,24101,,,,,
355,24113,,,,,
364,24124,,,,,
357,24135,,,,,
363,24147,,,,,
363,24159,,,,,
361,24170,,,,,
367,24181,,,,,
360,24193,,,,,
369,24204,,,,,
363,24216,,,,,
369,24227,,,,,
367,24239,,,,,
362,24250,,,,,
364,24261,,,,,
355,24273,,,,,
362,24285,,,,,
356,24296,,,,,
361,24307,,,,,
361,24318,,,,,
357,24330,,,,,
364,24342,,,,,
354,24353,,,,,
364,24365,,,,,
359,24376,,,,,
363,24387,,,,,
361,24398,,,,,
354,24411,,,,,
359,24422,,,,,
350,24433,,,,,
358,24444,,,,,
352,24456,,,,,
355,24467,,,,,
349,24479,,,,,
359,24491,,,,,
401,24502,,,,,
347,24513,,,,,
328,24524,,,,,
343,24536,,,,,
353,24548,,,,,
355,24559,,,,,
351,24570,,,,,
359,24582,,,,,
352,24593,,,,,
360,24605,,,,,
357,24616,,,,,
359,24628,,,,,
362,24639,,,,,
357,24650,,,,,
365,24662,,,,,
358,24674,,,,,
366,24685,,,,,
363,24696,,,,,
364,24708,,,,,
367,24719,,,,,
360,24730,,,,,
367,24742,,,,,
356,24754,,,,,
361,24765,,,,,
358,24776,,,,,
357,24787,,,,,
361,24799,,,,,
354,24811,,,,,
363,24822,,,,,
355,24834,,,,,
361,24845,,,,,
360,24856,,,,,
360,24867,,,,,
365,24880,,,,,
354,24891,,,,,
360,24902,,,,,
351,24913,,,,,
357,24925,,,,,
355,24936,,,,,
352,24948,,,,,
357,24960,,,,,
342,24971,,,,,
366,24982,,,,,
395,24993,,,,,
352,25006,,,,,
325,25017,,,,,
343,25028,,,,,
356,25039,,,,,
350,25051,,,,,
360,25062,,,,,
355,25074,,,,,
360,25085,,,,,
360,25097,,,,,
357,25108,,,,,
364,25119,,,,,
357,25131,,,,,
365,25143,,,,,
361,25154,,,,,
365,25165,,,,,
366,25177,,,,,
361,25188,,,,,
369,25199,,,,,
360,25211,,,,,
368,25223,,,,,
360,25234,,,,,
361,25245,,,,,
359,25256,,,,,
355,25268,,,,,
361,25280,,,,,
353,25291,,,,,
361,25303,,,,,
357,25314,,,,,
359,25325,,,,,
359,25337,,,,,
355,25349,,,,,
364,25360,,,,,
356,25371,,,,,
363,25382,,,,,
355,25394,,,,,
355,25406,,,,,
356,25417,,,,,
349,25428,,,,,
357,25440,,,,,
349,25451,,,,,
351,25462,,,,,
350,25475,,,,,
392,25486,,,,,
374,25497,,,,,
319,25508,,,,,
340,25520,,,,,
346,25531,,,,,
355,25543,,,,,
354,25554,,,,,
355,25566,,,,,
359,25577,,,,,
353,25588,,,,,
362,25600,,,,,
354,25612,,,,,
362,25623,,,,,
360,25634,,,,,
360,25646,,,,,
365,25657,,,,,
358,25668,,,,,
366,25680,,,,,
359,25692,,,,,
367,25703,,,,,
364,25714,,,,,
361,25725,,,,,
363,25738,,,,,
353,25749,,,,,
361,25760,,,,,
354,25772,,,,,
360,25783,,,,,
359,25794,,,,,
356,25806,,,,,
361,25818,,,,,
354,25829,,,,,
362,25840,,,,,
356,25851,,,,,
363,25863,,,,,
363,25875,,,,,
359,25886,,,,,
361,25897,,,,,
351,25909,,,,,
359,25920,,,,,
353,25931,,,,,
357,25944,,,,,
357,25955,,,,,
348,25966,,,,,
357,25977,,,,,
391,25989,,,,,
377,26000,,,,,
321,26012,,,,,
339,26023,,,,,
353,26035,,,,,
351,26046,,,,,
359,26057,,,,,
352,26070,,,,,
361,26081,,,,,
357,26092,,,,,
360,26103,,,,,
362,26115,,,,,
357,26126,,,,,
365,26138,,,,,
358,26149,,,,,
367,26161,,,,,
363,26172,,,,,
365,26183,,,,,
368,26194,,,,,
363,26207,,,,,
371,26218,,,,,
360,26229,,,,,
365,26241,,,,,
358,26252,,,,,
359,26263,,,,,
361,26275,,,,,
355,26287,,,,,
363,26298,,,,,
355,26309,,,,,
361,26320,,,,,
358,26332,,,,,
357,26344,,,,,
361,26355,,,,,
355,26366,,,,,
365,26378,,,,,
356,26389,,,,,
360,26400,,,,,
355,26413,,,,,
353,26424,,,,,
356,26435,,,,,
349,26446,,,,,
357,26458,,,,,
349,26470,,,,,
350,26481,,,,,
375,26492,,,,,
395,26504,,,,,
337,26515,,,,,
321,26526,,,,,
349,26539,,,,,
348,26550,,,,,
355,26561,,,,,
355,26572,,,,,
354,26584,,,,,
360,26595,,,,,
352,26607,,,,,
361,26618,,,,,
355,26630,,,,,
361,26641,,,,,
361,26652,,,,,
359,26663,,,,,
366,26676,,,,,
359,26687,,,,,
368,26698,,,,,
362,26710,,,,,
368,26721,,,,,
365,26732,,,,,
359,26744,,,,,
362,26756,,,,,
352,26767,,,,,
360,26778,,,,,
354,26789,,,,,
357,26802,,,,,
358,26813,,,,,
354,26824,,,,,
361,26835,,,,,
352,26847,,,,,
361,26858,,,,,
357,26870,,,,,
361,26882,,,,,
361,26893,,,,,
352,26904,,,,,
357,26915,,,,,
348,26927,,,,,
356,26939,,,,,
351,26950,,,,,
354,26961,,,,,
355,26973,,,,,
348,26984,,,,,
378,26995,,,,,
362,27008,,,,,
324,27019,,,,,
330,27030,,,,,
350,27041,,,,,
357,27053,,,,,
352,27064,,,,,
360,27076,,,,,
353,27087,,,,,
361,27099,,,,,
358,27110,,,,,
359,27121,,,,,
363,27132,,,,,
357,27145,,,,,
367,27156,,,,,
359,27167,,,,,
367,27179,,,,,
365,27190,,,,,
365,27202,,,,,
369,27213,,,,,
362,27225,,,,,
368,27236,,,,,
357,27247,,,,,
361,27258,,,,,
358,27271,,,,,
356,27282,,,,,
360,27293,,,,,
353,27304,,,,,
362,27316,,,,,
355,27327,,,,,
362,27339,,,,,
361,27351,,,,,
360,27362,,,,,
366,27373,,,,,
356,27384,,,,,
362,27396,,,,,
353,27408,,,,,
359,27419,,,,,
358,27430,,,,,
355,27442,,,,,
360,27453,,,,,
352,27464,,,,,
361,27476,,,,,
372,27488,,,,,
347,27499,,,,,
319,27510,,,,,
339,27522,,,,,
360,27534,,,,,
354,27545,,,,,
363,27556,,,,,
358,27568,,,,,
363,27579,,,,,
363,27590,,,,,
360,27602,,,,,
367,27614,,,,,
359,27625,,,,,
368,27636,,,,,
363,27648,,,,,
368,27659,,,,,
368,27671,,,,,
364,27682,,,,,
371,27694,,,,,
362,27705,,,,,
370,27716,,,,,
362,27727,,,,,
362,27740,,,,,
362,27751,,,,,
355,27762,,,,,
362,27773,,,,,
354,27785,,,,,
363,27796,,,,,
358,27808,,,,,
359,27820,,,,,
363,27831,,,,,
358,27842,,,,,
366,27853,,,,,
356,27865,,,,,
361,27877,,,,,
355,27888,,,,,
355,27899,,,,,
357,27911,,,,,
351,27922,,,,,
358,27934,,,,,
350,27945,,,,,
357,27957,,,,,
374,27968,,,,,
352,27979,,,,,
321,27991,,,,,
335,28003,,,,,
357,28014,,,,,
352,28025,,,,,
360,28037,,,,,
357,28048,,,,,
357,28059,,,,,
361,28071,,,,,
354,28083,,,,,
364,28094,,,,,
356,28105,,,,,
364,28116,,,,,
362,28128,,,,,
361,28140,,,,,
366,28151,,,,,
357,28163,,,,,
367,28174,,,,,
360,28185,,,,,
366,28196,,,,,
362,28209,,,,,
358,28220,,,,,
361,28231,,,,,
353,28242,,,,,
362,28254,,,,,
355,28266,,,,,
361,28277,,,,,
359,28289,,,,,
356,28300,,,,,
363,28311,,,,,
356,28322,,,,,
365,28335,,,,,
357,28346,,,,,
359,28357,,,,,
357,28368,,,,,
353,28380,,,,,
359,28391,,,,,
350,28403,,,,,
359,28414,,,,,
350,28426,,,,,
359,28437,,,,,
385,28448,,,,,
351,28460,,,,,
325,28472,,,,,
337,28483,,,,,
358,28494,,,,,
354,28506,,,,,
359,28517,,,,,
360,28528,,,,,
357,28540,,,,,
365,28552,,,,,
357,28563,,,,,
367,28574,,,,,
362,28585,,,,,
367,28597,,,,,
369,28609,,,,,
366,28620,,,,,
376,28632,,,,,
369,28643,,,,,
380,28654,,,,,
378,28666,,,,,
382,28678,,,,,
384,28689,,,,,
378,28700,,,,,
386,28711,,,,,
378,28723,,,,,
388,28735,,,,,
385,28746,,,,,
389,28758,,,,,
393,28769,,,,,
388,28780,,,,,
401,28791,,,,,
395,28804,,,,,
406,28815,,,,,
401,28826,,,,,
399,28837,,,,,
401,28849,,,,,
394,28860,,,,,
403,28872,,,,,
394,28883,,,,,
401,28895,,,,,
393,28906,,,,,
399,28917,,,,,
434,28929,,,,,
387,28941,,,,,
362,28952,,,,,
376,28963,,,,,
393,28975,,,,,
390,28986,,,,,
389,28998,,,,,
393,29009,,,,,
384,29021,,,,,
393,29032,,,,,
384,29043,,,,,
390,29054,,,,,
386,29067,,,,,
384,29078,,,,,
388,29089,,,,,
380,29101,,,,,
388,29112,,,,,
380,29123,,,,,
385,29135,,,,,
383,29147,,,,,
379,29158,,,,,
380,29169,,,,,
368,29180,,,,,
374,29192,,,,,
366,29204,,,,,
370,29215,,,,,
367,29227,,,,,
362,29238,,,,,
368,29249,,,,,
358,29260,,,,,
366,29273,,,,,
359,29284,,,,,
364,29295,,,,,
362,29306,,,,,
353,29318,,,,,
357,29329,,,,,
347,29341,,,,,
355,29352,,,,,
348,29364,,,,,
351,29375,,,,,
349,29386,,,,,
339,29399,,,,,
376,29410,,,,,
360,29421,,,,,
317,29432,,,,,
320,29444,,,,,
342,29455,,,,,
346,29467,,,,,
341,29478,,,,,
350,29490,,,,,
341,29501,,,,,
350,29512,,,,,
346,29523,,,,,
348,29536,,,,,
351,29547,,,,,
345,29558,,,,,
354,29570,,,,,
346,29581,,,,,
354,29592,,,,,
351,29604,,,,,
352,29616,,,,,
355,29627,,,,,
349,29638,,,,,
354,29649,,,,,
343,29661,,,,,
348,29673,,,,,
343,29684,,,,,
343,29696,,,,,
346,29707,,,,,
339,29718,,,,,
348,29730,,,,,
340,29742,,,,,
346,29753,,,,,
344,29764,,,,,
345,29775,,,,,
350,29787,,,,,
341,29799,,,,,
346,29810,,,,,
336,29821,,,,,
343,29833,,,,,
340,29844,,,,,
339,29855,,,,,
343,29868,,,,,
332,29879,,,,,
343,29890,,,,,
370,29901,,,,,
348,29913,,,,,
304,29924,,,,,
322,29936,,,,,
342,29947,,,,,
336,29959,,,,,
346,29970,,,,,
340,29981,,,,,
347,29992,,,,,
347,30005,,,,,
344,30016,,,,,
351,30027,,,,,
344,30039,,,,,
354,30050,,,,,
349,30061,,,,,
354,30073,,,,,
355,30085,,,,,
351,30096,,,,,
359,30107,,,,,
352,30118,,,,,
361,30131,,,,,
353,30142,,,,,
353,30153,,,,,
352,30164,,,,,
346,30176,,,,,
353,30187,,,,,
345,30199,,,,,
354,30211,,,,,
349,30222,,,,,
351,30233,,,,,
352,30244,,,,,
348,30256,,,,,
356,30268,,,,,
349,30279,,,,,
356,30290,,,,,
348,30302,,,,,
348,30313,,,,,
349,30324,,,,,
343,30337,,,,,
351,30348,,,,,
343,30359,,,,,
349,30370,,,,,
345,30382,,,,,
379,30393,,,,,
360,30405,,,,,
309,30416,,,,,
335,30428,,,,,
342,30439,,,,,
352,30450,,,,,
350,30462,,,,,
351,30474,,,,,
355,30485,,,,,
349,30496,,,,,
358,30508,,,,,
351,30519,,,,,
359,30531,,,,,
357,30542,,,,,
357,30554,,,,,
362,30565,,,,,
355,30576,,,,,
364,30587,,,,,
358,30600,,,,,
366,30611,,,,,
364,30622,,,,,
360,30633,,,,,
361,30645,,,,,
351,30656,,,,,
359,30668,,,,,
351,30680,,,,,
357,30691,,,,,
356,30702,,,,,
355,30713,,,,,
361,30725,,,,,
353,30737,,,,,
362,30748,,,,,
356,30759,,,,,
363,30771,,,,,
361,30782,,,,,
355,30793,,,,,
359,30806,,,,,
350,30817,,,,,
359,30828,,,,,
352,30839,,,,,
357,30851,,,,,
354,30863,,,,,
351,30874,,,,,
392,30885,,,,,
360,30897,,,,,
322,30908,,,,,
333,30919,,,,,
353,30931,,,,,
356,30943,,,,,
352,30954,,,,,
360,30965,,,,,
352,30977,,,,,
361,30988,,,,,
356,31000,,,,,
360,31011,,,,,
362,31023,,,,,
358,31034,,,,,
366,31045,,,,,
358,31056,,,,,
367,31069,,,,,
362,31080,,,,,
366,31091,,,,,
368,31102,,,,,
362,31114,,,,,
367,31125,,,,,
355,31137,,,,,
360,31149,,,,,
355,31160,,,,,
356,31171,,,,,
359,31182,,,,,
352,31195,,,,,
361,31206,,,,,
353,31217,,,,,
360,31228,,,,,
357,31240,,,,,
358,31251,,,,,
362,31263,,,,,
354,31275,,,,,
359,31286,,,,,
349,31297,,,,,
356,31308,,,,,
353,31320,,,,,
352,31332,,,,,
355,31343,,,,,
345,31354,,,,,
359,31366,,,,,
385,31377,,,,,
354,31388,,,,,
317,31400,,,,,
338,31412,,,,,
354,31423,,,,,
348,31434,,,,,
358,31446,,,,,
351,31457,,,,,
359,31469,,,,,
357,31480,,,,,
356,31492,,,,,
361,31503,,,,,
354,31514,,,,,
364,31525,,,,,
357,31538,,,,,
364,31549,,,,,
363,31560,,,,,
361,31571,,,,,
368,31583,,,,,
361,31595,,,,,
369,31606,,,,,
359,31618,,,,,
361,31629,,,,,
358,31640,,,,,
354,31651,,,,,
360,31664,,,,,
352,31675,,,,,
361,31686,,,,,
355,31697,,,,,
360,31709,,,,,
359,31720,,,,,
357,31732,,,,,
365,31744,,,,,
357,31755,,,,,
363,31766,,,,,
354,31777,,,,,
357,31789,,,,,
357,31801,,,,,
352,31812,,,,,
359,31823,,,,,
350,31835,,,,,
353,31846,,,,,
362,31857,,,,,
394,31869,,,,,
347,31881,,,,,
322,31892,,,,,
351,31903,,,,,
349,31915,,,,,
358,31927,,,,,
355,31938,,,,,
358,31949,,,,,
360,31961,,,,,
355,31972,,,,,
363,31983,,,,,
355,31995,,,,,
364,32007,,,,,
360,32018,,,,,
362,32029,,,,,
365,32040,,,,,
359,32052,,,,,
368,32064,,,,,
360,32075,,,,,
368,32087,,,,,
364,32098,,,,,
362,32109,,,,,
363,32120,,,,,
355,32133,,,,,
363,32144,,,,,
354,32155,,,,,
362,32166,,,,,
359,32178,,,,,
359,32189,,,,,
362,32201,,,,,
355,32212,,,,,
365,32224,,,,,
358,32235,,,,,
365,32246,,,,,
359,32258,,,,,
355,32270,,,,,
359,32281,,,,,
351,32292,,,,,
360,32304,,,,,
352,32315,,,,,
357,32327,,,,,
349,32338,,,,,
376,32350,,,,,
387,32361,,,,,
323,32372,,,,,
334,32384,,,,,
347,32396,,,,,
356,32407,,,,,
356,32418,,,,,
354,32430,,,,,
361,32441,,,,,
353,32452,,,,,
363,32464,,,,,
356,32476,,,,,
362,32487,,,,,
362,32498,,,,,
360,32509,,,,,
366,32521,,,,,
359,32533,,,,,
367,32544,,,,,
362,32556,,,,,
367,32567,,,,,
367,32578,,,,,
361,32589,,,,,
365,32602,,,,,
354,32613,,,,,
361,32624,,,,,
355,32635,,,,,
359,32647,,,,,
360,32659,,,,,
355,32670,,,,,
362,32681,,,,,
353,32693,,,,,
362,32704,,,,,
358,32715,,,,,
362,32728,,,,,
361,32739,,,,,
353,32750,,,,,
359,32761,,,,,
350,32773,,,,,
357,32784,,,,,
352,32796,,,,,
355,32807,,,,,
352,32819,,,,,
351,32830,,,,,
397,32841,,,,,
353,32852,,,,,
322,32865,,,,,
338,32876,,,,,
352,32887,,,,,
357,32899,,,,,
351,32910,,,,,
360,32921,,,,,
353,32933,,,,,
361,32945,,,,,
358,32956,,,,,
359,32967,,,,,
363,32978,,,,,
356,32990,,,,,
366,33002,,,,,
358,33013,,,,,
366,33025,,,,,
363,33036,,,,,
364,33047,,,,,
368,33059,,,,,
360,33071,,,,,
367,33082,,,,,
356,33093,,,,,
360,33104,,,,,
358,33116,,,,,
356,33128,,,,,
361,33139,,,,,
353,33150,,,,,
362,33162,,,,,
355,33173,,,,,
361,33184,,,,,
359,33197,,,,,
358,33208,,,,,
365,33219,,,,,
353,33230,,,,,
359,33242,,,,,
352,33253,,,,,
357,33265,,,,,
355,33276,,,,,
352,33288,,,,,
357,33299,,,,,
343,33310,,,,,
372,33321,,,,,
397,33334,,,,,
347,33345,,,,,
331,33356,,,,,
349,33368,,,,,
362,33379,,,,,
355,33391,,,,,
365,33402,,,,,
360,33414,,,,,
365,33425,,,,,
366,33436,,,,,
362,33447,,,,,
369,33460,,,,,
361,33471,,,,,
370,33482,,,,,
366,33494,,,,,
370,33505,,,,,
370,33516,,,,,
366,33528,,,,,
374,33540,,,,,
366,33551,,,,,
373,33562,,,,,
365,33573,,,,,
363,33585,,,,,
363,33597,,,,,
357,33608,,,,,
364,33619,,,,,
355,33631,,,,,
363,33642,,,,,
359,33653,,,,,
361,33666,,,,,
363,33677,,,,,
358,33688,,,,,
367,33699,,,,,
357,33711,,,,,
361,33722,,,,,
355,33734,,,,,
355,33745,,,,,
358,33757,,,,,
351,33768,,,,,
359,33779,,,,,
348,33792,,,,,
351,33803,,,,,
382,33814,,,,,
379,33825,,,,,
326,33837,,,,,
327,33848,,,,,
353,33860,,,,,
349,33871,,,,,
356,33883,,,,,
354,33894,,,,,
354,33905,,,,,
359,33916,,,,,
352,33929,,,,,
361,33940,,,,,
354,33951,,,,,
361,33963,,,,,
360,33974,,,,,
359,33985,,,,,
365,33997,,,,,
357,34009,,,,,
367,34020,,,,,
361,34031,,,,,
366,34042,,,,,
363,34054,,,,,
356,34066,,,,,
359,34077,,,,,
350,34088,,,,,
358,34100,,,,,
352,34111,,,,,
358,34123,,,,,
357,34135,,,,,
354,34146,,,,,
359,34157,,,,,
352,34168,,,,,
362,34180,,,,,
356,34192,,,,,
359,34203,,,,,
355,34214,,,,,
350,34226,,,,,
357,34237,,,,,
347,34248,,,,,
356,34260,,,,,
350,34272,,,,,
348,34283,,,,,
363,34294,,,,,
391,34306,,,,,
348,34317,,,,,
317,34329,,,,,
347,34340,,,,,
349,34352,,,,,
354,34363,,,,,
356,34374,,,,,
352,34385,,,,,
360,34398,,,,,
352,34409,,,,,
361,34420,,,,,
357,34432,,,,,
360,34443,,,,,
362,34454,,,,,
357,34466,,,,,
366,34478,,,,,
358,34489,,,,,
367,34500,,,,,
363,34511,,,,,
365,34524,,,,,
367,34535,,,,,
358,34546,,,,,
363,34557,,,,,
353,34569,,,,,
360,34580,,,,,
356,34592,,,,,
357,34604,,,,,
361,34615,,,,,
354,34626,,,,,
362,34637,,,,,
355,34649,,,,,
363,34661,,,,,
361,34672,,,,,
359,34683,,,,,
359,34695,,,,,
350,34706,,,,,
359,34717,,,,,
350,34729,,,,,
357,34741,,,,,
354,34752,,,,,
348,34763,,,,,
357,34775,,,,,
386,34786,,,,,
365,34798,,,,,
318,34809,,,,,
342,34821,,,,,
352,34832,,,,,
352,34843,,,,,
358,34855,,,,,
350,34867,,,,,
360,34878,,,,,
353,34889,,,,,
360,34900,,,,,
359,34912,,,,,
357,34924,,,,,
363,34935,,,,,
356,34947,,,,,
365,34958,,,,,
358,34969,,,,,
364,34980,,,,,
364,34993,,,,,
362,35004,,,,,
367,35015,,,,,
357,35026,,,,,
363,35038,,,,,
354,35049,,,,,
358,35061,,,,,
358,35073,,,,,
354,35084,,,,,
361,35095,,,,,
353,35106,,,,,
362,35118,,,,,
356,35130,,,,,
361,35141,,,,,
362,35152,,,,,
357,35164,,,,,
361,35175,,,,,
350,35186,,,,,
358,35198,,,,,
352,35210,,,,,
355,35221,,,,,
356,35232,,,,,
348,35244,,,,,
352,35256,,,,,
378,35267,,,,,
379,35278,,,,,
324,35290,,,,,
335,35301,,,,,
352,35312,,,,,
349,35324,,,,,
358,35336,,,,,
351,35347,,,,,
359,35358,,,,,
356,35369,,,,,
358,35381,,,,,
361,35393,,,,,
355,35404,,,,,
363,35416,,,,,
356,35427,,,,,
365,35438,,,,,
361,35449,,,,,
362,35462,,,,,
366,35473,,,,,
359,35484,,,,,
368,35495,,,,,
358,35507,,,,,
363,35518,,,,,
357,35530,,,,,
357,35542,,,,,
360,35553,,,,,
353,35564,,,,,
362,35575,,,,,
355,35588,,,,,
361,35599,,,,,
358,35610,,,,,
358,35621,,,,,
364,35633,,,,,
357,35644,,,,,
363,35656,,,,,
352,35667,,,,,
357,35679,,,,,
355,35690,,,,,
352,35701,,,,,
357,35713,,,,,
349,35725,,,,,
351,35736,,,,,
357,35747,,,,,
399,35759,,,,,
351,35770,,,,,
321,35781,,,,,
347,35793,,,,,
347,35805,,,,,
357,35816,,,,,
351,35827,,,,,
357,35838,,,,,
357,35850,,,,,
354,35862,,,,,
361,35873,,,,,
353,35885,,,,,
363,35896,,,,,
357,35907,,,,,
362,35918,,,,,
363,35931,,,,,
359,35942,,,,,
365,35953,,,,,
358,35964,,,,,
367,35976,,,,,
360,35988,,,,,
362,35999,,,,,
359,36011,,,,,
353,36022,,,,,
360,36033,,,,,
351,36044,,,,,
361,36057,,,,,
355,36068,,,,,
358,36079,,,,,
359,36090,,,,,
353,36102,,,,,
362,36113,,,,,
353,36125,,,,,
363,36136,,,,,
357,36148,,,,,
355,36159,,,,,
356,36170,,,,,
349,36182,,,,,
357,36194,,,,,
348,36205,,,,,
356,36216,,,,,
345,36228,,,,,
357,36239,,,,,
413,36250,,,,,
366,36262,,,,,
330,36274,,,,,
334,36285,,,,,
352,36296,,,,,
350,36307,,,,,
352,36320,,,,,
356,36331,,,,,
350,36342,,,,,
359,36354,,,,,
351,36365,,,,,
359,36376,,,,,
357,36388,,,,,
357,36400,,,,,
363,36411,,,,,
355,36422,,,,,
365,36433,,,,,
357,36445,,,,,
365,36457,,,,,
364,36468,,,,,
362,36480,,,,,
364,36491,,,,,
353,36502,,,,,
360,36513,,,,,
352,36526,,,,,
358,36537,,,,,
356,36548,,,,,
354,36559,,,,,
360,36571,,,,,
352,36582,,,,,
361,36594,,,,,
355,36605,,,,,
361,36617,,,,,
361,36628,,,,,
357,36639,,,,,
360,36651,,,,,
349,36663,,,,,
358,36674,,,,,
351,36685,,,,,
355,36697,,,,,
355,36708,,,,,
347,36720,,,,,
356,36731,,,,,
388,36743,,,,,
375,36754,,,,,
321,36765,,,,,
338,36776,,,,,
351,36789,,,,,
349,36800,,,,,
357,36811,,,,,
349,36823,,,,,
358,36834,,,,,
354,36845,,,,,
357,36857,,,,,
359,36869,,,,,
355,36880,,,,,
363,36891,,,,,
355,36902,,,,,
365,36914,,,,,
360,36926,,,,,
363,36937,,,,,
365,36948,,,,,
360,36960,,,,,
367,36971,,,,,
356,36982,,,,,
361,36995,,,,,
355,37006,,,,,
355,37017,,,,,
357,37028,,,,,
351,37040,,,,,
360,37052,,,,,
351,37063,,,,,
360,37074,,,,,
356,37086,,,,,
356,37097,,,,,
360,37108,,,,,
355,37121,,,,,
363,37132,,,,,
351,37143,,,,,
356,37154,,,,,
353,37166,,,,,
352,37177,,,,,
355,37189,,,,,
348,37200,,,,,
355,37212,,,,,
342,37223,,,,,
380,37234,,,,,
383,37245,,,,,
327,37258,,,,,
333,37269,,,,,
343,37280,,,,,
355,37292,,,,,
348,37303,,,,,
356,37314,,,,,
355,37326,,,,,
354,37338,,,,,
359,37349,,,,,
352,37360,,,,,
361,37371,,,,,
355,37383,,,,,
361,37395,,,,,
361,37406,,,,,
359,37417,,,,,
365,37429,,,,,
356,37440,,,,,
366,37452,,,,,
359,37464,,,,,
363,37475,,,,,
359,37486,,,,,
354,37497,,,,,
359,37509,,,,,
350,37521,,,,,
359,37532,,,,,
353,37543,,,,,
358,37555,,,,,
357,37566,,,,,
354,37577,,,,,
359,37590,,,,,
352,37601,,,,,
362,37612,,,,,
357,37623,,,,,
358,37635,,,,,
356,37646,,,,,
350,37658,,,,,
357,37669,,,,,
347,37681,,,,,
356,37692,,,,,
350,37703,,,,,
348,37714,,,,,
358,37727,,,,,
391,37738,,,,,
361,37749,,,,,
318,37761,,,,,
343,37772,,,,,
349,37784,,,,,
352,37795,,,,,
355,37807,,,,,
350,37818,,,,,
359,37829,,,,,
351,37840,,,,,
359,37853,,,,,
356,37864,,,,,
357,37875,,,,,
361,37886,,,,,
355,37898,,,,,
364,37909,,,,,
356,37921,,,,,
363,37933,,,,,
361,37944,,,,,
361,37955,,,,,
364,37966,,,,,
355,37978,,,,,
361,37990,,,,,
352,38001,,,,,
359,38012,,,,,
356,38024,,,,,
355,38035,,,,,
359,38046,,,,,
352,38059,,,,,
360,38070,,,,,
353,38081,,,,,
359,38092,,,,,
357,38104,,,,,
357,38115,,,,,
363,38127,,,,,
354,38138,,,,,
359,38150,,,,,
350,38161,,,,,
355,38172,,,,,
353,38184,,,,,
351,38196,,,,,
356,38207,,,,,
346,38218,,,,,
352,38230,,,,,
379,38241,,,,,
382,38253,,,,,
328,38264,,,,,
330,38276,,,,,
352,38287,,,,,
347,38298,,,,,
357,38309,,,,,
351,38322,,,,,
356,38333,,,,,
357,38344,,,,,
353,38355,,,,,
360,38367,,,,,
353,38378,,,,,
362,38390,,,,,
357,38402,,,,,
362,38413,,,,,
362,38424,,,,,
357,38435,,,,,
365,38447,,,,,
357,38459,,,,,
365,38470,,,,,
359,38481,,,,,
360,38493,,,,,
359,38504,,,,,
353,38516,,,,,
360,38528,,,,,
352,38539,,,,,
360,38550,,,,,
355,38561,,,,,
357,38573,,,,,
359,38585,,,,,
353,38596,,,,,
360,38607,,,,,
352,38619,,,,,
362,38630,,,,,
358,38641,,,,,
357,38653,,,,,
357,38665,,,,,
350,38676,,,,,
358,38687,,,,,
348,38699,,,,,
356,38710,,,,,
352,38722,,,,,
347,38733,,,,,
366,38745,,,,,
393,38756,,,,,
351,38767,,,,,
319,38778,,,,,
347,38791,,,,,
351,38802,,,,,
351,38813,,,,,
357,38824,,,,,
350,38836,,,,,
359,38847,,,,,
352,38859,,,,,
360,38871,,,,,
357,38882,,,,,
357,38893,,,,,
362,38904,,,,,
355,38917,,,,,
364,38928,,,,,
356,38939,,,,,
363,38950,,,,,
362,38962,,,,,
360,38973,,,,,
365,38985,,,,,
355,38996,,,,,
361,39008,,,,,
352,39019,,,,,
358,39030,,,,,
357,39042,,,,,
353,39054,,,,,
360,39065,,,,,
351,39076,,,,,
359,39088,,,,,
353,39099,,,,,
358,39110,,,,,
357,39122,,,,,
355,39134,,,,,
362,39145,,,,,
352,39156,,,,,
358,39168,,,,,
350,39179,,,,,
354,39191,,,,,
354,39202,,,,,
349,39214,,,,,
355,39225,,,,,
343,39236,,,,,
358,39248,,,,,
392,39260,,,,,
363,39271,,,,,
321,39282,,,,,
333,39293,,,,,
352,39305,,,,,
346,39317,,,,,
355,39328,,,,,
351,39340,,,,,
354,39351,,,,,
356,39362,,,,,
352,39373,,,,,
360,39386,,,,,
351,39397,,,,,
361,39408,,,,,
357,39419,,,,,
359,39431,,,,,
362,39442,,,,,
356,39454,,,,,
365,39465,,,,,
357,39477,,,,,
365,39488,,,,,
358,39499,,,,,
356,39511,,,,,
357,39523,,,,,
349,39534,,,,,
357,39545,,,,,
349,39557,,,,,
356,39568,,,,,
353,39579,,,,,
353,39591,,,,,
357,39603,,,,,
349,39614,,,,,
358,39625,,,,,
351,39636,,,,,
359,39649,,,,,
355,39660,,,,,
351,39671,,,,,
354,39683,,,,,
346,39694,,,,,
355,39705,,,,,
346,39717,,,,,
353,39729,,,,,
348,39740,,,,,
356,39751,,,,,
394,39762,,,,,
345,39774,,,,,
323,39786,,,,,
335,39797,,,,,
351,39809,,,,,
352,39820,,,,,
350,39831,,,,,
356,39842,,,,,
349,39855,,,,,
359,39866,,,,,
353,39877,,,,,
359,39888,,,,,
357,39900,,,,,
355,39911,,,,,
362,39923,,,,,
355,39934,,,,,
365,39946,,,,,
359,39957,,,,,
364,39968,,,,,
365,39981,,,,,
360,39992,,,,,
364,40003,,,,,
352,40014,,,,,
359,40026,,,,,
353,40037,,,,,
356,40049,,,,,
357,40060,,,,,
352,40072,,,,,
360,40083,,,,,
351,40094,,,,,
360,40105,,,,,
355,40118,,,,,
359,40129,,,,,
361,40140,,,,,
354,40152,,,,,
359,40163,,,,,
348,40174,,,,,
355,40186,,,,,
351,40198,,,,,
352,40209,,,,,
354,40220,,,,,
346,40231,,,,,
358,40243,,,,,
377,40255,,,,,
352,40266,,,,,
316,40278,,,,,
338,40289,,,,,
353,40300,,,,,
347,40311,,,,,
357,40324,,,,,
350,40335,,,,,
358,40346,,,,,
355,40357,,,,,
356,40369,,,,,
360,40381,,,,,
353,40392,,,,,
363,40403,,,,,
355,40415,,,,,
363,40426,,,,,
361,40437,,,,,
360,40450,,,,,
365,40461,,,,,
358,40472,,,,,
366,40483,,,,,
356,40495,,,,,
360,40506,,,,,
355,40518,,,,,
353,40529,,,,,
358,40541,,,,,
350,40552,,,,,
359,40563,,,,,
352,40574,,,,,
358,40587,,,,,
357,40598,,,,,
355,40609,,,,,
362,40621,,,,,
353,40632,,,,,
359,40643,,,,,
350,40655,,,,,
354,40667,,,,,
353,40678,,,,,
349,40689,,,,,
356,40700,,,,,
346,40713,,,,,
351,40724,,,,,
368,40735,,,,,
372,40747,,,,,
324,40758,,,,,
326,40769,,,,,
352,40781,,,,,
347,40793,,,,,
357,40804,,,,,
352,40815,,,,,
356,40826,,,,,
357,40838,,,,,
352,40850,,,,,
360,40861,,,,,
352,40872,,,,,
361,40884,,,,,
356,40895,,,,,
360,40906,,,,,
362,40919,,,,,
356,40930,,,,,
365,40941,,,,,
356,40952,,,,,
365,40964,,,,,
359,40975,,,,,
358,40987,,,,,
358,40998,,,,,
351,41010,,,,,
359,41021,,,,,
350,41032,,,,,
359,41043,,,,,
355,41056,,,,,
355,41067,,,,,
359,41078,,,,,
353,41090,,,,,
363,41101,,,,,
354,41113,,,,,
359,41124,,,,,
353,41136,,,,,
352,41147,,,,,
355,41158,,,,,
348,41169,,,,,
357,41182,,,,,
347,41193,,,,,
348,41204,,,,,
372,41216,,,,,
375,41227,,,,,
328,41238,,,,,
323,41250,,,,,
352,41262,,,,,
347,41273,,,,,
355,41284,,,,,
354,41295,,,,,
352,41307,,,,,
358,41319,,,,,
350,41330,,,,,
360,41341,,,,,
353,41353,,,,,
359,41364,,,,,
358,41375,,,,,
356,41388,,,,,
362,41399,,,,,
354,41410,,,,,
363,41421,,,,,
357,41433,,,,,
363,41445,,,,,
361,41456,,,,,
354,41467,,,,,
359,41479,,,,,
349,41490,,,,,
359,41501,,,,,
352,41513,,,,,
357,41525,,,,,
357,41536,,,,,
352,41547,,,,,
360,41559,,,,,
352,41570,,,,,
362,41582,,,,,
355,41593,,,,,
356,41605,,,,,
354,41616,,,,,
348,41627,,,,,
355,41638,,,,,
346,41651,,,,,
355,41662,,,,,
346,41673,,,,,
350,41684,,,,,
385,41696,,,,,
359,41707,,,,,
321,41719,,,,,
329,41731,,,,,
352,41742,,,,,
349,41753,,,,,
352,41764,,,,,
355,41776,,,,,
350,41788,,,,,
359,41799,,,,,
351,41810,,,,,
359,41822,,,,,
356,41833,,,,,
357,41845,,,,,
361,41857,,,,,
355,41868,,,,,
364,41879,,,,,
355,41890,,,,,
364,41902,,,,,
362,41914,,,,,
362,41925,,,,,
363,41936,,,,,
352,41948,,,,,
359,41959,,,,,
350,41970,,,,,
357,41982,,,,,
355,41994,,,,,
354,42005,,,,,
359,42016,,,,,
351,42028,,,,,
361,42039,,,,,
353,42051,,,,,
361,42062,,,,,
356,42074,,,,,
351,42085,,,,,
355,42096,,,,,
346,42107,,,,,
355,42120,,,,,
347,42131,,,,,
353,42142,,,,,
345,42153,,,,,
356,42165,,,,,
397,42177,,,,,
335,42188,,,,,
320,42200,,,,,
337,42211,,,,,
352,42222,,,,,
352,42233,,,,,
349,42246,,,,,
357,42257,,,,,
349,42268,,,,,
359,42279,,,,,
353,42291,,,,,
358,42302,,,,,
358,42314,,,,,
354,42326,,,,,
362,42337,,,,,
354,42348,,,,,
363,42359,,,,,
358,42371,,,,,
363,42383,,,,,
365,42394,,,,,
358,42405,,,,,
363,42417,,,,,
351,42428,,,,,
358,42439,,,,,
352,42451,,,,,
355,42463,,,,,
357,42474,,,,,
352,42485,,,,,
359,42497,,,,,
350,42508,,,,,
360,42520,,,,,
357,42531,,,,,
358,42543,,,,,
357,42554,,,,,
349,42565,,,,,
356,42577,,,,,
346,42589,,,,,
354,42600,,,,,
350,42611,,,,,
349,42622,,,,,
347,42634,,,,,
374,42646,,,,,
375,42657,,,,,
309,42669,,,,,
331,42680,,,,,
346,42691,,,,,
349,42702,,,,,
353,42715,,,,,
347,42726,,,,,
357,42737,,,,,
349,42748,,,,,
357,42760,,,,,
355,42771,,,,,
356,42783,,,,,
360,42795,,,,,
354,42806,,,,,
363,42817,,,,,
357,42828,,,,,
363,42840,,,,,
362,42852,,,,,
362,42863,,,,,
367,42874,,,,,
356,42886,,,,,
362,42897,,,,,
352,42909,,,,,
357,42920,,,,,
355,42932,,,,,
353,42943,,,,,
359,42954,,,,,
351,42966,,,,,
359,42978,,,,,
353,42989,,,,,
359,43000,,,,,
359,43012,,,,,
353,43023,,,,,
357,43034,,,,,
347,43046,,,,,
355,43058,,,,,
348,43069,,,,,
353,43080,,,,,
352,43091,,,,,
342,43103,,,,,
370,43115,,,,,
384,43126,,,,,
332,43138,,,,,
317,43149,,,,,
344,43160,,,,,
351,43171,,,,,
347,43184,,,,,
356,43195,,,,,
347,43206,,,,,
357,43217,,,,,
353,43229,,,,,
356,43240,,,,,
357,43252,,,,,
353,43264,,,,,
362,43275,,,,,
353,43286,,,,,
363,43297,,,,,
359,43310,,,,,
361,43321,,,,,
365,43332,,,,,
359,43343,,,,,
366,43355,,,,,
353,43366,,,,,
358,43378,,,,,
352,43389,,,,,
353,43401,,,,,
356,43412,,,,,
350,43423,,,,,
359,43435,,,,,
350,43447,,,,,
359,43458,,,,,
356,43469,,,,,
356,43481,,,,,
358,43492,,,,,
347,43503,,,,,
354,43515,,,,,
346,43527,,,,,
353,43538,,,,,
350,43549,,,,,
348,43560,,,,,
347,43572,,,,,
362,43584,,,,,
387,43595,,,,,
322,43607,,,,,
324,43618,,,,,
343,43629,,,,,
347,43641,,,,,
353,43653,,,,,
346,43664,,,,,
356,43675,,,,,
349,43686,,,,,
356,43698,,,,,
355,43710,,,,,
353,43721,,,,,
359,43732,,,,,
352,43744,,,,,
362,43755,,,,,
356,43766,,,,,
361,43779,,,,,
362,43790,,,,,
360,43801,,,,,
366,43812,,,,,
355,43824,,,,,
361,43835,,,,,
352,43847,,,,,
354,43858,,,,,
354,43870,,,,,
350,43881,,,,,
358,43892,,,,,
349,43904,,,,,
359,43916,,,,,
354,43927,,,,,
358,43938,,,,,
357,43950,,,,,
350,43961,,,,,
355,43972,,,,,
345,43984,,,,,
353,43996,,,,,
348,44007,,,,,
350,44018,,,,,
347,44029,,,,,
348,44042,,,,,
389,44053,,,,,
342,44064,,,,,
317,44076,,,,,
335,44087,,,,,
348,44098,,,,,
352,44110,,,,,
346,44122,,,,,
356,44133,,,,,
348,44144,,,,,
356,44155,,,,,
353,44167,,,,,
354,44179,,,,,
358,44190,,,,,
351,44201,,,,,
361,44213,,,,,
353,44224,,,,,
361,44235,,,,,
359,44248,,,,,
359,44259,,,,,
364,44270,,,,,
356,44281,,,,,
362,44293,,,,,
351,44304,,,,,
356,44316,,,,,
353,44327,,,,,
352,44339,,,,,
357,44350,,,,,
349,44361,,,,,
359,44374,,,,,
352,44385,,,,,
359,44396,,,,,
356,44407,,,,,
351,44419,,,,,
354,44430,,,,,
345,44442,,,,,
354,44453,,,,,
346,44465,,,,,
352,44476,,,,,
345,44487,,,,,
351,44498,,,,,
391,44511,,,,,
340,44522,,,,,
320,44533,,,,,
335,44545,,,,,
350,44556,,,,,
350,44567,,,,,
347,44579,,,,,
355,44591,,,,,
347,44602,,,,,
357,44613,,,,,
351,44624,,,,,
356,44636,,,,,
356,44648,,,,,
352,44659,,,,,
360,44670,,,,,
352,44682,,,,,
362,44693,,,,,
356,44704,,,,,
361,44717,,,,,
362,44728,,,,,
355,44739,,,,,
361,44750,,,,,
349,44762,,,,,
357,44774,,,,,
351,44785,,,,,
354,44796,,,,,
356,44808,,,,,
350,44819,,,,,
359,44830,,,,,
352,44843,,,,,
361,44854,,,,,
355,44865,,,,,
353,44876,,,,,
354,44888,,,,,
347,44899,,,,,
355,44911,,,,,
346,44922,,,,,
353,44934,,,,,
342,44945,,,,,
361,44956,,,,,
390,44967,,,,,
330,44980,,,,,
325,44991,,,,,
338,45002,,,,,
351,45014,,,,,
349,45025,,,,,
350,45036,,,,,
355,45048,,,,,
348,45060,,,,,
357,45071,,,,,
349,45082,,,,,
357,45093,,,,,
355,45106,,,,,
355,45117,,,,,
360,45128,,,,,
353,45139,,,,,
362,45151,,,,,
354,45162,,,,,
362,45174,,,,,
361,45186,,,,,
357,45197,,,,,
360,45208,,,,,
350,45219,,,,,
357,45231,,,,,
350,45243,,,,,
356,45254,,,,,
356,45265,,,,,
352,45277,,,,,
359,45288,,,,,
352,45299,,,,,
362,45312,,,,,
353,45323,,,,,
355,45334,,,,,
353,45345,,,,,
348,45357,,,,,
354,45368,,,,,
345,45380,,,,,
354,45391,,,,,
340,45403,,,,,
358,45414,,,,,
392,45425,,,,,
340,45436,,,,,
324,45449,,,,,
336,45460,,,,,
352,45471,,,,,
348,45483,,,,,
353,45494,,,,,
354,45506,,,,,
349,45517,,,,,
357,45529,,,,,
349,45540,,,,,
358,45551,,,,,
354,45562,,,,,
357,45575,,,,,
359,45586,,,,,
355,45597,,,,,
363,45608,,,,,
355,45620,,,,,
364,45631,,,,,
360,45643,,,,,
360,45655,,,,,
359,45666,,,,,
350,45677,,,,,
358,45688,,,,,
349,45700,,,,,
356,45712,,,,,
352,45723,,,,,
354,45734,,,,,
357,45746,,,,,
351,45757,,,,,
360,45768,,,,,
353,45780,,,,,
359,45792,,,,,
353,45803,,,,,
350,45814,,,,,
353,45826,,,,,
345,45838,,,,,
353,45849,,,,,
345,45860,,,,,
346,45872,,,,,
357,45883,,,,,
391,45894,,,,,
349,45906,,,,,
313,45918,,,,,
343,45929,,,,,
343,45940,,,,,
351,45952,,,,,
350,45963,,,,,
349,45975,,,,,
355,45986,,,,,
348,45998,,,,,
358,46009,,,,,
351,46020,,,,,
357,46031,,,,,
357,46044,,,,,
355,46055,,,,,
361,46066,,,,,
353,46077,,,,,
363,46089,,,,,
358,46100,,,,,
364,46112,,,,,
361,46124,,,,,
354,46135,,,,,
358,46146,,,,,
347,46157,,,,,
356,46169,,,,,
350,46181,,,,,
354,46192,,,,,
355,46203,,,,,
351,46215,,,,,
358,46226,,,,,
349,46238,,,,,
359,46249,,,,,
354,46261,,,,,
357,46272,,,,,
355,46283,,,,,
347,46295,,,,,
354,46307,,,,,
345,46318,,,,,
353,46329,,,,,
347,46341,,,,,
347,46352,,,,,
348,46363,,,,,
378,46375,,,,,
370,46387,,,,,
313,46398,,,,,
335,46409,,,,,
344,46420,,,,,
348,46432,,,,,
352,46444,,,,,
346,46455,,,,,
356,46467,,,,,
348,46478,,,,,
356,46489,,,,,
353,46500,,,,,
354,46513,,,,,
358,46524,,,,,
352,46535,,,,,
362,46546,,,,,
354,46558,,,,,
362,46570,,,,,
359,46581,,,,,
361,46593,,,,,
364,46604,,,,,
354,46615,,,,,
360,46626,,,,,
349,46639,,,,,
355,46650,,,,,
352,46661,,,,,
351,46672,,,,,
356,46684,,,,,
348,46695,,,,,
357,46707,,,,,
349,46718,,,,,
355,46730,,,,,
354,46741,,,,,
350,46752,,,,,
356,46764,,,,,
349,46776,,,,,
359,46787,,,,,
350,46798,,,,,
353,46810,,,,,
350,46821,,,,,
347,46832,,,,,
353,46844,,,,,
344,46856,,,,,
353,46867,,,,,
341,46878,,,,,
368,46889,,,,,
396,46901,,,,,
339,46913,,,,,
325,46924,,,,,
335,46936,,,,,
351,46947,,,,,
346,46958,,,,,
351,46970,,,,,
352,46982,,,,,
349,46993,,,,,
356,47004,,,,,
347,47015,,,,,
356,47027,,,,,
352,47039,,,,,
356,47050,,,,,
358,47062,,,,,
353,47073,,,,,
362,47084,,,,,
353,47095,,,,,
362,47108,,,,,
357,47119,,,,,
359,47130,,,,,
359,47141,,,,,
350,47153,,,,,
357,47164,,,,,
347,47176,,,,,
355,47187,,,,,
351,47199,,,,,
353,47210,,,,,
356,47221,,,,,
349,47233,,,,,
357,47245,,,,,
348,47256,,,,,
355,47267,,,,,
352,47279,,,,,
351,47290,,,,,
354,47302,,,,,
347,47313,,,,,
355,47325,,,,,
347,47336,,,,,
355,47347,,,,,
351,47358,,,,,
353,47371,,,,,
359,47382,,,,,
350,47393,,,,,
355,47405,,,,,
346,47416,,,,,
353,47427,,,,,
350,47439,,,,,
349,47451,,,,,
353,47462,,,,,
342,47473,,,,,
369,47484,,,,,
398,47496,,,,,
358,47508,,,,,
321,47519,,,,,
335,47531,,,,,
350,47542,,,,,
343,47553,,,,,
353,47564,,,,,
346,47577,,,,,
353,47588,,,,,
352,47599,,,,,
350,47610,,,,,
356,47622,,,,,
348,47633,,,,,
358,47645,,,,,
352,47656,,,,,
358,47668,,,,,
358,47679,,,,,
354,47690,,,,,
360,47703,,,,,
353,47714,,,,,
362,47725,,,,,
355,47736,,,,,
357,47748,,,,,
355,47759,,,,,
349,47771,,,,,
356,47782,,,,,
347,47794,,,,,
356,47805,,,,,
351,47816,,,,,
354,47827,,,,,
354,47840,,,,,
349,47851,,,,,
356,47862,,,,,
347,47874,,,,,
355,47885,,,,,
350,47896,,,,,
352,47908,,,,,
353,47920,,,,,
347,47931,,,,,
355,47942,,,,,
346,47953,,,,,
354,47965,,,,,
349,47977,,,,,
351,47988,,,,,
354,48000,,,,,
347,48011,,,,,
356,48022,,,,,
347,48034,,,,,
354,48046,,,,,
351,48057,,,,,
351,48068,,,,,
354,48079,,,,,
347,48091,,,,,
355,48103,,,,,
347,48114,,,,,
356,48125,,,,,
353,48137,,,,,
354,48148,,,,,
357,48159,,,,,
347,48172,,,,,
355,48183,,,,,
347,48194,,,,,
354,48205,,,,,
351,48217,,,,,
349,48228,,,,,
357,48240,,,,,
387,48251,,,,,
387,48263,,,,,
323,48274,,,,,
333,48285,,,,,
345,48296,,,,,
346,48309,,,,,
352,48320,,,,,
345,48331,,,,,
355,48343,,,,,
347,48354,,,,,
354,48365,,,,,
353,48377,,,,,
350,48389,,,,,
357,48400,,,,,
349,48411,,,,,
359,48422,,,,,
353,48435,,,,,
358,48446,,,,,
357,48457,,,,,
354,48468,,,,,
360,48480,,,,,
353,48491,,,,,
361,48503,,,,,
353,48515,,,,,
356,48526,,,,,
355,48537,,,,,
351,48548,,,,,
358,48560,,,,,
348,48572,,,,,
357,48583,,,,,
351,48594,,,,,
355,48606,,,,,
355,48617,,,,,
350,48628,,,,,
357,48641,,,,,
348,48652,,,,,
356,48663,,,,,
351,48674,,,,,
353,48686,,,,,
354,48697,,,,,
348,48709,,,,,
356,48720,,,,,
347,48732,,,,,
355,48743,,,,,
351,48754,,,,,
353,48766,,,,,
355,48778,,,,,
348,48789,,,,,
359,48800,,,,,
351,48812,,,,,
358,48823,,,,,
351,48835,,,,,
350,48846,,,,,
353,48858,,,,,
346,48869,,,,,
354,48880,,,,,
345,48891,,,,,
352,48904,,,,,
383,48915,,,,,
390,48926,,,,,
333,48937,,,,,
320,48949,,,,,
346,48960,,,,,
342,48972,,,,,
351,48984,,,,,
349,48995,,,,,
349,49006,,,,,
354,49017,,,,,
346,49029,,,,,
356,49041,,,,,
349,49052,,,,,
356,49063,,,,,
355,49075,,,,,
354,49086,,,,,
360,49097,,,,,
353,49110,,,,,
362,49121,,,,,
354,49132,,,,,
361,49143,,,,,
359,49155,,,,,
355,49167,,,,,
358,49178,,,,,
347,49189,,,,,
355,49201,,,,,
347,49212,,,,,
353,49223,,,,,
352,49235,,,,,
349,49247,,,,,
356,49258,,,,,
347,49269,,,,,
356,49281,,,,,
350,49292,,,,,
353,49304,,,,,
353,49315,,,,,
349,49327,,,,,
355,49338,,,,,
346,49349,,,,,
355,49360,,,,,
349,49373,,,,,
352,49384,,,,,
353,49395,,,,,
348,49406,,,,,
355,49418,,,,,
347,49429,,,,,
355,49441,,,,,
351,49453,,,,,
356,49464,,,,,
357,49475,,,,,
349,49486,,,,,
354,49499,,,,,
345,49510,,,,,
353,49521,,,,,
349,49532,,,,,
350,49544,,,,,
350,49555,,,,,
363,49567,,,,,
404,49579,,,,,
344,49590,,,,,
321,49601,,,,,
335,49612,,,,,
346,49624,,,,,
351,49636,,,,,
344,49647,,,,,
353,49658,,,,,
344,49670,,,,,
353,49681,,,,,
349,49692,,,,,
350,49704,,,,,
354,49716,,,,,
347,49727,,,,,
357,49738,,,,,
351,49750,,,,,
360,49761,,,,,
357,49773,,,,,
356,49784,,,,,
361,49796,,,,,
353,49807,,,,,
361,49818,,,,,
351,49829,,,,,
355,49842,,,,,
351,49853,,,,,
348,49864,,,,,
354,49875,,,,,
346,49887,,,,,
355,49899,,,,,
348,49910,,,,,
354,49922,,,,,
352,49933,,,,,
350,49944,,,,,
355,49955,,,,,
346,49968,,,,,
355,49979,,,,,
347,49990,,,,,
353,50001,,,,,
351,50013,,,,,
348,50024,,,,,
354,50036,,,,,
346,50048,,,,,
356,50059,,,,,
347,50070,,,,,
355,50081,,,,,
357,50093,,,,,
351,50105,,,,,
355,50116,,,,,
344,50127,,,,,
353,50139,,,,,
347,50150,,,,,
351,50161,,,,,
351,50173,,,,,
347,50185,,,,,
386,50196,,,,,
387,50207,,,,,
336,50219,,,,,
321,50231,,,,,
342,50242,,,,,
348,50253,,,,,
344,50265,,,,,
353,50276,,,,,
345,50287,,,,,
355,50299,,,,,
350,50311,,,,,
353,50322,,,,,
355,50333,,,,,
350,50344,,,,,
359,50356,,,,,
351,50368,,,,,
361,50379,,,,,
357,50391,,,,,
359,50402,,,,,
361,50413,,,,,
355,50424,,,,,
363,50437,,,,,
353,50448,,,,,
358,50459,,,,,
353,50470,,,,,
352,50482,,,,,
355,50493,,,,,
348,50505,,,,,
357,50516,,,,,
348,50528,,,,,
356,50539,,,,,
353,50550,,,,,
352,50562,,,,,
355,50574,,,,,
348,50585,,,,,
356,50596,,,,,
348,50608,,,,,
354,50619,,,,,
352,50631,,,,,
351,50642,,,,,
354,50654,,,,,
350,50665,,,,,
360,50676,,,,,
351,50688,,,,,
354,50700,,,,,
351,50711,,,,,
348,50722,,,,,
353,50734,,,,,
345,50745,,,,,
354,50756,,,,,
344,50768,,,,,
383,50780,,,,,
400,50791,,,,,
333,50802,,,,,
326,50813,,,,,
336,50825,,,,,
351,50837,,,,,
345,50848,,,,,
351,50860,,,,,
351,50871,,,,,
348,50882,,,,,
355,50893,,,,,
347,50906,,,,,
357,50917,,,,,
351,50928,,,,,
356,50939,,,,,
357,50951,,,,,
354,50963,,,,,
362,50974,,,,,
353,50985,,,,,
362,50997,,,,,
356,51008,,,,,
359,51019,,,,,
358,51032,,,,,
351,51043,,,,,
356,51054,,,,,
346,51065,,,,,
355,51077,,,,,
350,51088,,,,,
353,51100,,,,,
354,51111,,,,,
348,51123,,,,,
356,51134,,,,,
347,51145,,,,,
355,51156,,,,,
350,51169,,,,,
352,51180,,,,,
354,51191,,,,,
348,51203,,,,,
358,51214,,,,,
351,51225,,,,,
358,51237,,,,,
350,51249,,,,,
350,51260,,,,,
352,51271,,,,,
345,51282,,,,,
353,51294,,,,,
344,51306,,,,,
350,51317,,,,,
370,51329,,,,,
402,51340,,,,,
346,51351,,,,,
316,51363,,,,,
342,51375,,,,,
341,51386,,,,,
350,51397,,,,,
349,51408,,,,,
349,51420,,,,,
354,51432,,,,,
346,51443,,,,,
356,51454,,,,,
349,51466,,,,,
356,51477,,,,,
356,51488,,,,,
355,51501,,,,,
360,51512,,,,,
353,51523,,,,,
362,51534,,,,,
355,51546,,,,,
362,51557,,,,,
360,51569,,,,,
356,51580,,,,,
358,51592,,,,,
347,51603,,,,,
355,51614,,,,,
348,51625,,,,,
354,51638,,,,,
353,51649,,,,,
350,51660,,,,,
356,51672,,,,,
347,51683,,,,,
356,51695,,,,,
349,51706,,,,,
354,51718,,,,,
353,51729,,,,,
350,51740,,,,,
357,51751,,,,,
348,51764,,,,,
354,51775,,,,,
346,51786,,,,,
350,51798,,,,,
350,51809,,,,,
345,51820,,,,,
352,51832,,,,,
340,51844,,,,,
364,51855,,,,,
392,51866,,,,,
347,51877,,,,,
317,51889,,,,,
332,51901,,,,,
349,51912,,,,,
342,51923,,,,,
352,51935,,,,,
348,51946,,,,,
351,51957,,,,,
353,51970,,,,,
348,51981,,,,,
356,51992,,,,,
349,52003,,,,,
358,52015,,,,,
354,52026,,,,,
357,52038,,,,,
360,52049,,,,,
355,52061,,,,,
363,52072,,,,,
355,52083,,,,,
363,52096,,,,,
358,52107,,,,,
355,52118,,,,,
355,52129,,,,,
347,52141,,,,,
355,52152,,,,,
347,52164,,,,,
355,52175,,,,,
351,52187,,,,,
351,52198,,,,,
355,52209,,,,,
347,52220,,,,,
356,52233,,,,,
348,52244,,,,,
355,52255,,,,,
354,52267,,,,,
352,52278,,,,,
354,52289,,,,,
344,52301,,,,,
353,52313,,,,,
345,52324,,,,,
352,52335,,,,,
349,52346,,,,,
343,52358,,,,,
371,52370,,,,,
372,52381,,,,,
332,52392,,,,,
318,52404,,,,,
345,52415,,,,,
348,52427,,,,,
347,52439,,,,,
353,52450,,,,,
346,52461,,,,,
355,52472,,,,,
348,52484,,,,,
354,52496,,,,,
354,52507,,,,,
351,52518,,,,,
358,52530,,,,,
350,52541,,,,,
360,52552,,,,,
355,52564,,,,,
359,52576,,,,,
359,52587,,,,,
356,52598,,,,,
362,52610,,,,,
352,52621,,,,,
358,52633,,,,,
350,52644,,,,,
353,52656,,,,,
354,52667,,,,,
350,52678,,,,,
357,52689,,,,,
349,52702,,,,,
357,52713,,,,,
351,52724,,,,,
355,52736,,,,,
356,52747,,,,,
352,52758,,,,,
360,52770,,,,,
349,52782,,,,,
355,52793,,,,,
349,52804,,,,,
351,52815,,,,,
353,52828,,,,,
347,52839,,,,,
351,52850,,,,,
348,52861,,,,,
391,52873,,,,,
357,52884,,,,,
320,52896,,,,,
339,52908,,,,,
343,52919,,,,,
353,52930,,,,,
346,52941,,,,,
355,52953,,,,,
351,52965,,,,,
353,52976,,,,,
356,52987,,,,,
349,52999,,,,,
358,53010,,,,,
350,53021,,,,,
359,53033,,,,,
356,53045,,,,,
356,53056,,,,,
360,53067,,,,,
352,53079,,,,,
363,53090,,,,,
355,53102,,,,,
362,53113,,,,,
357,53125,,,,,
353,53136,,,,,
357,53147,,,,,
349,53159,,,,,
359,53171,,,,,
350,53182,,,,,
357,53193,,,,,
354,53204,,,,,
352,53216,,,,,
357,53228,,,,,
350,53239,,,,,
359,53251,,,,,
352,53262,,,,,
355,53273,,,,,
351,53284,,,,,
348,53297,,,,,
353,53308,,,,,
345,53319,,,,,
353,53330,,,,,
340,53342,,,,,
356,53353,,,,,
394,53365,,,,,
347,53377,,,,,
319,53388,,,,,
331,53399,,,,,
350,53410,,,,,
345,53422,,,,,
351,53434,,,,,
352,53445,,,,,
349,53456,,,,,
356,53468,,,,,
347,53479,,,,,
357,53490,,,,,
351,53502,,,,,
356,53514,,,,,
356,53525,,,,,
353,53536,,,,,
360,53548,,,,,
352,53560,,,,,
362,53571,,,,,
358,53582,,,,,
361,53594,,,,,
361,53605,,,,,
352,53616,,,,,
358,53628,,,,,
348,53640,,,,,
356,53651,,,,,
352,53662,,,,,
353,53673,,,,,
355,53685,,,,,
348,53697,,,,,
356,53708,,,,,
348,53720,,,,,
357,53731,,,,,
354,53742,,,,,
352,53753,,,,,
352,53766,,,,,
344,53777,,,,,
352,53788,,,,,
343,53799,,,,,
351,53811,,,,,
345,53822,,,,,
344,53834,,,,,
386,53846,,,,,
361,53857,,,,,
317,53868,,,,,
323,53879,,,,,
348,53892,,,,,
348,53903,,,,,
348,53914,,,,,
353,53925,,,,,
346,53937,,,,,
355,53948,,,,,
348,53960,,,,,
355,53971,,,,,
353,53983,,,,,
352,53994,,,,,
358,54005,,,,,
350,54017,,,,,
360,54029,,,,,
353,54040,,,,,
361,54051,,,,,
361,54063,,,,,
359,54074,,,,,
363,54085,,,,,
352,54097,,,,,
359,54109,,,,,
350,54120,,,,,
355,54131,,,,,
354,54142,,,,,
350,54154,,,,,
357,54166,,,,,
348,54177,,,,,
357,54189,,,,,
351,54200,,,,,
356,54211,,,,,
356,54222,,,,,
350,54235,,,,,
354,54246,,,,,
344,54257,,,,,
353,54268,,,,,
347,54280,,,,,
350,54292,,,,,
349,54303,,,,,
339,54315,,,,,
380,54326,,,,,
371,54337,,,,,
320,54348,,,,,
321,54361,,,,,
344,54372,,,,,
349,54383,,,,,
345,54394,,,,,
354,54406,,,,,
345,54417,,,,,
353,54429,,,,,
349,54440,,,,,
352,54452,,,,,
354,54463,,,,,
349,54474,,,,,
357,54486,,,,,
350,54498,,,,,
358,54509,,,,,
355,54520,,,,,
357,54532,,,,,
362,54543,,,,,
357,54554,,,,,
364,54566,,,,,
352,54578,,,,,
357,54589,,,,,
352,54600,,,,,
351,54611,,,,,
354,54624,,,,,
347,54635,,,,,
355,54646,,,,,
347,54658,,,,,
355,54669,,,,,
352,54680,,,,,
352,54692,,,,,
356,54704,,,,,
346,54715,,,,,
352,54726,,,,,
343,54737,,,,,
350,54749,,,,,
347,54761,,,,,
346,54772,,,,,
347,54784,,,,,
341,54795,,,,,
391,54806,,,,,
355,54817,,,,,
313,54830,,,,,
328,54841,,,,,
342,54852,,,,,
350,54863,,,,,
342,54875,,,,,
353,54886,,,,,
346,54898,,,,,
352,54909,,,,,
352,54921,,,,,
349,54932,,,,,
356,54943,,,,,
348,54955,,,,,
358,54967,,,,,
353,54978,,,,,
359,54989,,,,,
359,55001,,,,,
357,55012,,,,,
366,55024,,,,,
358,55035,,,,,
364,55047,,,,,
353,55058,,,,,
355,55069,,,,,
353,55080,,,,,
348,55093,,,,,
355,55104,,,,,
347,55115,,,,,
355,55127,,,,,
349,55138,,,,,
353,55149,,,,,
354,55161,,,,,
350,55173,,,,,
357,55184,,,,,
345,55195,,,,,
351,55206,,,,,
347,55218,,,,,
348,55230,,,,,
350,55241,,,,,
343,55252,,,,,
343,55264,,,,,
355,55275,,,,,
393,55286,,,,,
331,55299,,,,,
317,55310,,,,,
341,55321,,,,,
342,55332,,,,,
352,55344,,,,,
344,55356,,,,,
353,55367,,,,,
349,55378,,,,,
350,55390,,,,,
354,55401,,,,,
347,55412,,,,,
356,55425,,,,,
348,55436,,,,,
356,55447,,,,,
354,55458,,,,,
354,55470,,,,,
359,55481,,,,,
353,55493,,,,,
364,55504,,,,,
356,55516,,,,,
360,55527,,,,,
355,55538,,,,,
351,55549,,,,,
355,55562,,,,,
346,55573,,,,,
355,55584,,,,,
348,55596,,,,,
354,55607,,,,,
352,55618,,,,,
351,55630,,,,,
358,55642,,,,,
349,55653,,,,,
355,55664,,,,,
345,55675,,,,,
350,55687,,,,,
348,55699,,,,,
345,55710,,,,,
350,55721,,,,,
338,55733,,,,,
346,55744,,,,,
379,55756,,,,,
366,55768,,,,,
315,55779,,,,,
325,55790,,,,,
347,55801,,,,,
341,55813,,,,,
351,55825,,,,,
346,55836,,,,,
351,55847,,,,,
352,55859,,,,,
348,55870,,,,,
355,55881,,,,,
346,55894,,,,,
355,55905,,,,,
350,55916,,,,,
354,55927,,,,,
355,55939,,,,,
351,55950,,,,,
360,55962,,,,,
353,55973,,,,,
363,55985,,,,,
357,55996,,,,,
356,56007,,,,,
355,56018,,,,,
349,56031,,,,,
356,56042,,,,,
347,56053,,,,,
356,56065,,,,,
351,56076,,,,,
352,56088,,,,,
356,56099,,,,,
350,56111,,,,,
359,56122,,,,,
347,56133,,,,,
352,56144,,,,,
347,56157,,,,,
347,56168,,,,,
350,56179,,,,,
342,56190,,,,,
348,56202,,,,,
335,56213,,,,,
379,56225,,,,,
373,56237,,,,,
317,56248,,,,,
328,56259,,,,,
338,56270,,,,,
351,56282,,,,,
344,56294,,,,,
352,56305,,,,,
350,56316,,,,,
349,56328,,,,,
355,56339,,,,,
347,56350,,,,,
356,56363,,,,,
349,56374,,,,,
356,56385,,,,,
355,56396,,,,,
354,56408,,,,,
359,56419,,,,,
353,56431,,,,,
363,56442,,,,,
357,56454,,,,,
361,56465,,,,,
357,56476,,,,,
351,56488,,,,,
355,56500,,,,,
346,56511,,,,,
355,56522,,,,,
349,56534,,,,,
354,56545,,,,,
353,56557,,,,,
351,56568,,,,,
357,56580,,,,,
349,56591,,,,,
355,56602,,,,,
345,56613,,,,,
349,56626,,,,,
349,56637,,,,,
344,56648,,,,,
350,56659,,,,,
341,56671,,,,,
344,56682,,,,,
369,56694,,,,,
378,56706,,,,,
321,56717,,,,,
319,56728,,,,,
345,56739,,,,,
340,56751,,,,,
350,56763,,,,,
346,56774,,,,,
350,56785,,,,,
352,56797,,,,,
347,56808,,,,,
355,56820,,,,,
346,56832,,,,,
355,56843,,,,,
352,56854,,,,,
354,56865,,,,,
357,56877,,,,,
352,56889,,,,,
361,56900,,,,,
355,56911,,,,,
364,56923,,,,,
358,56934,,,,,
355,56945,,,,,
355,56957,,,,,
346,56969,,,,,
355,56980,,,,,
346,56991,,,,,
354,57003,,,,,
352,57014,,,,,
351,57026,,,,,
355,57037,,,,,
349,57049,,,,,
358,57060,,,,,
347,57071,,,,,
352,57082,,,,,
347,57095,,,,,
345,57106,,,,,
350,57117,,,,,
342,57128,,,,,
350,57140,,,,,
337,57151,,,,,
367,57163,,,,,
378,57175,,,,,
323,57186,,,,,
324,57197,,,,,
335,57208,,,,,
350,57221,,,,,
343,57232,,,,,
351,57243,,,,,
350,57254,,,,,
348,57266,,,,,
354,57277,,,,,
346,57289,,,,,
355,57300,,,,,
349,57312,,,,,
355,57323,,,,,
355,57334,,,,,
353,57346,,,,,
359,57358,,,,,
351,57369,,,,,
363,57380,,,,,
357,57392,,,,,
361,57403,,,,,
357,57414,,,,,
350,57426,,,,,
355,57438,,,,,
345,57449,,,,,
355,57460,,,,,
349,57472,,,,,
353,57483,,,,,
353,57495,,,,,
350,57506,,,,,
358,57518,,,,,
349,57529,,,,,
355,57540,,,,,
347,57552,,,,,
348,57564,,,,,
349,57575,,,,,
344,57586,,,,,
351,57597,,,,,
340,57609,,,,,
345,57621,,,,,
372,57632,,,,,
367,57644,,,,,
319,57655,,,,,
322,57666,,,,,
347,57677,,,,,
341,57690,,,,,
350,57701,,,,,
347,57712,,,,,
349,57723,,,,,
352,57735,,,,,
346,57746,,,,,
355,57758,,,,,
347,57769,,,,,
355,57781,,,,,
352,57792,,,,,
353,57803,,,,,
357,57815,,,,,
350,57827,,,,,
360,57838,,,,,
353,57849,,,,,
362,57861,,,,,
358,57872,,,,,
353,57883,,,,,
355,57895,,,,,
346,57907,,,,,
355,57918,,,,,
347,57929,,,,,
355,57940,,,,,
352,57953,,,,,
350,57964,,,,,
356,57975,,,,,
350,57987,,,,,
357,57998,,,,,
347,58009,,,,,
351,58021,,,,,
348,58033,,,,,
345,58044,,,,,
351,58055,,,,,
342,58066,,,,,
345,58078,,,,,
344,58090,,,,,
388,58101,,,,,
353,58113,,,,,
314,58124,,,,,
337,58135,,,,,
340,58146,,,,,
350,58159,,,,,
344,58170,,,,,
350,58181,,,,,
350,58192,,,,,
347,58204,,,,,
354,58215,,,,,
346,58227,,,,,
355,58238,,,,,
349,58250,,,,,
354,58261,,,,,
355,58272,,,,,
351,58285,,,,,
358,58296,,,,,
351,58307,,,,,
361,58318,,,,,
356,58330,,,,,
357,58341,,,,,
356,58353,,,,,
350,58364,,,,,
358,58376,,,,,
349,58387,,,,,
358,58398,,,,,
354,58409,,,,,
357,58422,,,,,
359,58433,,,,,
355,58444,,,,,
364,58456,,,,,
355,58467,,,,,
361,58478,,,,,
354,58490,,,,,
354,58502,,,,,
356,58513,,,,,
349,58524,,,,,
357,58535,,,,,
345,58547,,,,,
349,58559,,,,,
383,58570,,,,,
376,58582,,,,,
328,58593,,,,,
328,58604,,,,,
352,58615,,,,,
345,58628,,,,,
354,58639,,,,,
352,58650,,,,,
352,58661,,,,,
356,58673,,,,,
349,58685,,,,,
358,58696,,,,,
350,58707,,,,,
357,58719,,,,,
355,58730,,,,,
355,58741,,,,,
359,58754,,,,,
351,58765,,,,,
361,58776,,,,,
354,58787,,,,,
362,58799,,,,,
358,58810,,,,,
353,58822,,,,,
357,58833,,,,,
347,58845,,,,,
356,58856,,,,,
348,58867,,,,,
355,58878,,,,,
353,58891,,,,,
350,58902,,,,,
355,58913,,,,,
346,58925,,,,,
357,58936,,,,,
351,58947,,,,,
355,58959,,,,,
351,58971,,,,,
345,58982,,,,,
351,58993,,,,,
342,59004,,,,,
350,59017,,,,,
343,59028,,,,,
341,59039,,,,,
354,59051,,,,,
390,59062,,,,,
352,59073,,,,,
310,59085,,,,,
338,59097,,,,,
341,59108,,,,,
347,59119,,,,,
349,59130,,,,,
344,59142,,,,,
353,59154,,,,,
344,59165,,,,,
353,59176,,,,,
348,59188,,,,,
351,59199,,,,,
353,59210,,,,,
349,59223,,,,,
357,59234,,,,,
349,59245,,,,,
357,59256,,,,,
353,59268,,,,,
356,59279,,,,,
359,59291,,,,,
351,59302,,,,,
356,59314,,,,,
346,59325,,,,,
353,59336,,,,,
350,59347,,,,,
350,59360,,,,,
353,59371,,,,,
345,59382,,,,,
354,59394,,,,,
345,59405,,,,,
353,59417,,,,,
348,59428,,,,,
349,59440,,,,,
354,59451,,,,,
348,59462,,,,,
355,59473,,,,,
343,59486,,,,,
349,59497,,,,,
346,59508,,,,,
345,59520,,,,,
349,59531,,,,,
341,59542,,,,,
344,59554,,,,,
362,59566,,,,,
401,59577,,,,,
337,59588,,,,,
316,59599,,,,,
339,59611,,,,,
338,59623,,,,,
349,59634,,,,,
342,59645,,,,,
350,59657,,,,,
348,59668,,,,,
346,59679,,,,,
353,59692,,,,,
344,59703,,,,,
354,59714,,,,,
348,59725,,,,,
355,59737,,,,,
354,59749,,,,,
351,59760,,,,,
357,59771,,,,,
349,59783,,,,,
361,59794,,,,,
354,59805,,,,,
357,59817,,,,,
353,59829,,,,,
347,59840,,,,,
353,59851,,,,,
345,59863,,,,,
354,59874,,,,,
348,59886,,,,,
352,59897,,,,,
352,59909,,,,,
347,59920,,,,,
354,59931,,,,,
345,59942,,,,,
353,59955,,,,,
349,59966,,,,,
353,59977,,,,,
355,59988,,,,,
347,60000,,,,,
352,60011,,,,,
