EKG,T,,,,,0
340,2,119.1521864,0.028720077,1.923076923,0.014073317,
329,3,,,,,
322,4,,,,,
319,5,,,,,
316,6,,,,,
315,7,,,,,
315,8,,,,,
317,9,,,,,
318,10,,,,,
321,11,,,,,
340,19,,,,,
372,27,,,,,
379,35,,,,,
380,45,,,,,
386,53,,,,,
390,61,,,,,
394,69,,,,,
397,77,,,,,
401,86,,,,,
408,94,,,,,
412,102,,,,,
420,112,,,,,
425,121,,,,,
436,131,,,,,
441,140,,,,,
448,149,,,,,
453,158,,,,,
456,167,,,,,
457,178,,,,,
455,187,,,,,
452,196,,,,,
444,205,,,,,
430,215,,,,,
413,224,,,,,
402,233,,,,,
389,242,,,,,
381,252,,,,,
377,262,,,,,
381,271,,,,,
378,280,,,,,
379,289,,,,,
380,299,,,,,
381,308,,,,,
380,318,,,,,
381,327,,,,,
381,336,,,,,
381,346,,,,,
381,355,,,,,
379,364,,,,,
380,373,,,,,
375,384,,,,,
371,393,,,,,
371,402,,,,,
385,411,,,,,
383,420,,,,,
379,430,,,,,
372,439,,,,,
365,449,,,,,
355,458,,,,,
351,467,,,,,
351,477,,,,,
347,486,,,,,
345,495,,,,,
345,504,,,,,
333,515,,,,,
304,524,,,,,
411,533,,,,,
654,542,,,,,
654,551,,,,,
364,561,,,,,
264,570,,,,,
290,580,,,,,
317,589,,,,,
319,599,,,,,
321,608,,,,,
323,617,,,,,
325,626,,,,,
327,635,,,,,
329,646,,,,,
333,655,,,,,
332,664,,,,,
340,673,,,,,
342,683,,,,,
348,692,,,,,
352,701,,,,,
358,711,,,,,
362,720,,,,,
366,730,,,,,
364,739,,,,,
364,748,,,,,
357,757,,,,,
346,766,,,,,
333,777,,,,,
317,786,,,,,
299,795,,,,,
289,804,,,,,
283,814,,,,,
277,823,,,,,
277,832,,,,,
278,841,,,,,
280,851,,,,,
280,861,,,,,
282,870,,,,,
283,879,,,,,
285,888,,,,,
282,898,,,,,
280,907,,,,,
281,917,,,,,
282,926,,,,,
283,935,,,,,
283,945,,,,,
283,954,,,,,
287,963,,,,,
298,972,,,,,
297,983,,,,,
294,992,,,,,
289,1001,,,,,
283,1011,,,,,
278,1021,,,,,
277,1032,,,,,
275,1043,,,,,
277,1053,,,,,
276,1063,,,,,
262,1074,,,,,
243,1084,,,,,
418,1094,,,,,
658,1104,,,,,
435,1116,,,,,
205,1126,,,,,
222,1136,,,,,
260,1146,,,,,
269,1157,,,,,
274,1167,,,,,
281,1178,,,,,
285,1188,,,,,
291,1199,,,,,
298,1209,,,,,
299,1219,,,,,
308,1229,,,,,
315,1240,,,,,
322,1251,,,,,
329,1261,,,,,
338,1271,,,,,
344,1282,,,,,
348,1292,,,,,
350,1302,,,,,
344,1313,,,,,
334,1324,,,,,
322,1334,,,,,
301,1344,,,,,
284,1354,,,,,
273,1364,,,,,
271,1376,,,,,
270,1386,,,,,
272,1396,,,,,
275,1406,,,,,
275,1417,,,,,
276,1427,,,,,
275,1437,,,,,
277,1448,,,,,
279,1459,,,,,
281,1469,,,,,
281,1479,,,,,
284,1489,,,,,
282,1500,,,,,
287,1511,,,,,
299,1521,,,,,
300,1531,,,,,
296,1542,,,,,
295,1552,,,,,
286,1562,,,,,
284,1572,,,,,
283,1584,,,,,
288,1594,,,,,
285,1604,,,,,
287,1614,,,,,
271,1625,,,,,
262,1635,,,,,
462,1646,,,,,
659,1656,,,,,
398,1667,,,,,
203,1677,,,,,
236,1687,,,,,
278,1697,,,,,
287,1709,,,,,
289,1719,,,,,
297,1729,,,,,
303,1739,,,,,
307,1750,,,,,
313,1760,,,,,
320,1770,,,,,
322,1781,,,,,
332,1792,,,,,
337,1802,,,,,
347,1812,,,,,
354,1822,,,,,
361,1832,,,,,
360,1844,,,,,
362,1854,,,,,
355,1864,,,,,
348,1874,,,,,
333,1885,,,,,
318,1895,,,,,
303,1905,,,,,
293,1916,,,,,
288,1927,,,,,
285,1937,,,,,
287,1947,,,,,
290,1957,,,,,
291,1968,,,,,
293,1979,,,,,
297,1989,,,,,
297,1999,,,,,
300,2010,,,,,
301,2020,,,,,
304,2030,,,,,
304,2041,,,,,
305,2052,,,,,
310,2062,,,,,
318,2072,,,,,
316,2082,,,,,
316,2093,,,,,
309,2103,,,,,
305,2114,,,,,
303,2124,,,,,
304,2135,,,,,
303,2145,,,,,
305,2155,,,,,
304,2165,,,,,
275,2177,,,,,
331,2187,,,,,
595,2197,,,,,
639,2207,,,,,
303,2217,,,,,
240,2228,,,,,
282,2238,,,,,
306,2249,,,,,
309,2259,,,,,
315,2270,,,,,
320,2280,,,,,
327,2290,,,,,
330,2300,,,,,
336,2312,,,,,
339,2322,,,,,
348,2332,,,,,
354,2342,,,,,
362,2353,,,,,
369,2363,,,,,
378,2374,,,,,
381,2384,,,,,
381,2395,,,,,
378,2405,,,,,
374,2415,,,,,
362,2425,,,,,
348,2436,,,,,
331,2447,,,,,
319,2457,,,,,
314,2467,,,,,
309,2478,,,,,
308,2488,,,,,
309,2498,,,,,
310,2509,,,,,
313,2520,,,,,
316,2530,,,,,
317,2540,,,,,
319,2550,,,,,
318,2561,,,,,
321,2571,,,,,
321,2582,,,,,
322,2592,,,,,
321,2603,,,,,
333,2613,,,,,
335,2623,,,,,
334,2633,,,,,
328,2644,,,,,
321,2655,,,,,
313,2665,,,,,
313,2675,,,,,
314,2685,,,,,
315,2696,,,,,
314,2707,,,,,
301,2717,,,,,
277,2727,,,,,
435,2738,,,,,
661,2748,,,,,
501,2758,,,,,
243,2768,,,,,
257,2780,,,,,
299,2790,,,,,
304,2800,,,,,
309,2810,,,,,
314,2821,,,,,
320,2831,,,,,
323,2842,,,,,
328,2852,,,,,
333,2863,,,,,
339,2873,,,,,
342,2883,,,,,
349,2893,,,,,
355,2904,,,,,
365,2915,,,,,
368,2925,,,,,
371,2935,,,,,
369,2946,,,,,
365,2956,,,,,
356,2966,,,,,
342,2977,,,,,
326,2988,,,,,
314,2998,,,,,
303,3008,,,,,
299,3018,,,,,
297,3028,,,,,
296,3040,,,,,
296,3050,,,,,
299,3060,,,,,
304,3070,,,,,
304,3081,,,,,
307,3091,,,,,
305,3101,,,,,
308,3112,,,,,
308,3123,,,,,
311,3133,,,,,
310,3143,,,,,
320,3153,,,,,
326,3164,,,,,
326,3175,,,,,
321,3185,,,,,
314,3195,,,,,
306,3206,,,,,
306,3216,,,,,
306,3226,,,,,
307,3236,,,,,
308,3248,,,,,
306,3258,,,,,
274,3268,,,,,
335,3278,,,,,
599,3289,,,,,
629,3299,,,,,
299,3310,,,,,
240,3320,,,,,
287,3331,,,,,
306,3341,,,,,
311,3351,,,,,
313,3361,,,,,
319,3373,,,,,
324,3383,,,,,
330,3393,,,,,
336,3403,,,,,
342,3414,,,,,
348,3424,,,,,
355,3434,,,,,
363,3445,,,,,
371,3456,,,,,
378,3466,,,,,
383,3476,,,,,
383,3486,,,,,
381,3496,,,,,
374,3508,,,,,
364,3518,,,,,
351,3528,,,,,
334,3538,,,,,
323,3549,,,,,
316,3559,,,,,
312,3569,,,,,
311,3580,,,,,
313,3591,,,,,
315,3601,,,,,
317,3611,,,,,
317,3621,,,,,
321,3632,,,,,
320,3643,,,,,
325,3653,,,,,
324,3663,,,,,
327,3674,,,,,
327,3684,,,,,
339,3694,,,,,
344,3705,,,,,
341,3716,,,,,
335,3726,,,,,
327,3736,,,,,
323,3746,,,,,
322,3757,,,,,
320,3767,,,,,
321,3778,,,,,
322,3788,,,,,
314,3799,,,,,
279,3809,,,,,
412,3819,,,,,
660,3829,,,,,
546,3841,,,,,
265,3851,,,,,
263,3861,,,,,
309,3871,,,,,
317,3881,,,,,
318,3892,,,,,
323,3902,,,,,
331,3913,,,,,
335,3923,,,,,
340,3934,,,,,
342,3944,,,,,
350,3954,,,,,
358,3964,,,,,
367,3976,,,,,
373,3986,,,,,
381,3996,,,,,
382,4006,,,,,
387,4017,,,,,
385,4027,,,,,
382,4038,,,,,
375,4048,,,,,
363,4059,,,,,
349,4069,,,,,
333,4079,,,,,
321,4089,,,,,
315,4100,,,,,
313,4111,,,,,
312,4121,,,,,
314,4131,,,,,
316,4142,,,,,
319,4152,,,,,
319,4162,,,,,
321,4173,,,,,
322,4184,,,,,
325,4194,,,,,
327,4204,,,,,
327,4214,,,,,
334,4225,,,,,
340,4235,,,,,
337,4246,,,,,
334,4256,,,,,
324,4267,,,,,
318,4277,,,,,
315,4287,,,,,
316,4297,,,,,
318,4308,,,,,
317,4319,,,,,
315,4329,,,,,
277,4339,,,,,
355,4349,,,,,
634,4360,,,,,
610,4371,,,,,
282,4381,,,,,
250,4391,,,,,
293,4402,,,,,
314,4412,,,,,
315,4422,,,,,
320,4432,,,,,
324,4444,,,,,
331,4454,,,,,
335,4464,,,,,
342,4474,,,,,
346,4485,,,,,
354,4495,,,,,
359,4506,,,,,
366,4516,,,,,
373,4527,,,,,
380,4537,,,,,
381,4547,,,,,
381,4557,,,,,
378,4568,,,,,
370,4579,,,,,
359,4589,,,,,
342,4599,,,,,
330,4610,,,,,
318,4620,,,,,
311,4630,,,,,
308,4641,,,,,
308,4652,,,,,
308,4662,,,,,
313,4672,,,,,
312,4682,,,,,
316,4692,,,,,
316,4704,,,,,
319,4714,,,,,
321,4724,,,,,
325,4734,,,,,
323,4745,,,,,
331,4755,,,,,
336,4765,,,,,
337,4776,,,,,
332,4787,,,,,
323,4797,,,,,
316,4807,,,,,
316,4817,,,,,
315,4828,,,,,
315,4839,,,,,
317,4849,,,,,
314,4859,,,,,
278,4870,,,,,
332,4880,,,,,
597,4890,,,,,
636,4900,,,,,
311,4912,,,,,
244,4922,,,,,
289,4932,,,,,
309,4942,,,,,
311,4953,,,,,
313,4963,,,,,
320,4974,,,,,
323,4984,,,,,
330,4995,,,,,
334,5005,,,,,
341,5015,,,,,
344,5025,,,,,
354,5037,,,,,
361,5047,,,,,
369,5057,,,,,
376,5067,,,,,
377,5078,,,,,
379,5088,,,,,
376,5098,,,,,
370,5109,,,,,
358,5120,,,,,
344,5130,,,,,
327,5140,,,,,
315,5150,,,,,
309,5160,,,,,
308,5172,,,,,
306,5182,,,,,
307,5192,,,,,
307,5202,,,,,
312,5213,,,,,
311,5223,,,,,
315,5233,,,,,
315,5244,,,,,
319,5255,,,,,
321,5265,,,,,
321,5275,,,,,
329,5285,,,,,
336,5296,,,,,
335,5307,,,,,
330,5317,,,,,
322,5327,,,,,
316,5338,,,,,
313,5348,,,,,
313,5358,,,,,
314,5369,,,,,
314,5380,,,,,
313,5390,,,,,
273,5400,,,,,
337,5410,,,,,
611,5421,,,,,
629,5431,,,,,
304,5442,,,,,
254,5452,,,,,
292,5463,,,,,
311,5473,,,,,
312,5483,,,,,
317,5493,,,,,
320,5505,,,,,
326,5515,,,,,
331,5525,,,,,
338,5535,,,,,
342,5545,,,,,
350,5556,,,,,
355,5566,,,,,
363,5577,,,,,
369,5587,,,,,
378,5598,,,,,
381,5608,,,,,
379,5618,,,,,
377,5628,,,,,
369,5640,,,,,
359,5650,,,,,
340,5660,,,,,
327,5670,,,,,
314,5681,,,,,
308,5691,,,,,
305,5702,,,,,
307,5712,,,,,
305,5723,,,,,
309,5733,,,,,
310,5743,,,,,
313,5753,,,,,
313,5764,,,,,
317,5775,,,,,
320,5785,,,,,
323,5795,,,,,
321,5806,,,,,
330,5816,,,,,
335,5826,,,,,
334,5837,,,,,
330,5848,,,,,
321,5858,,,,,
315,5868,,,,,
314,5878,,,,,
314,5889,,,,,
313,5899,,,,,
316,5910,,,,,
311,5920,,,,,
271,5931,,,,,
345,5941,,,,,
625,5951,,,,,
619,5961,,,,,
296,5972,,,,,
250,5983,,,,,
293,5993,,,,,
310,6003,,,,,
313,6013,,,,,
317,6024,,,,,
323,6035,,,,,
327,6045,,,,,
332,6055,,,,,
337,6066,,,,,
344,6076,,,,,
347,6086,,,,,
359,6096,,,,,
369,6108,,,,,
379,6118,,,,,
386,6128,,,,,
391,6138,,,,,
392,6149,,,,,
387,6159,,,,,
378,6170,,,,,
365,6180,,,,,
347,6191,,,,,
331,6201,,,,,
321,6211,,,,,
314,6221,,,,,
314,6232,,,,,
309,6243,,,,,
312,6253,,,,,
311,6263,,,,,
311,6274,,,,,
313,6284,,,,,
319,6294,,,,,
317,6305,,,,,
322,6316,,,,,
324,6326,,,,,
325,6336,,,,,
323,6346,,,,,
337,6356,,,,,
340,6368,,,,,
333,6378,,,,,
329,6388,,,,,
321,6398,,,,,
316,6409,,,,,
315,6419,,,,,
318,6429,,,,,
317,6440,,,,,
319,6451,,,,,
306,6461,,,,,
276,6471,,,,,
423,6481,,,,,
662,6492,,,,,
530,6503,,,,,
241,6513,,,,,
252,6523,,,,,
301,6534,,,,,
312,6544,,,,,
315,6554,,,,,
320,6564,,,,,
327,6576,,,,,
330,6586,,,,,
337,6596,,,,,
340,6606,,,,,
350,6617,,,,,
355,6627,,,,,
362,6638,,,,,
370,6648,,,,,
379,6659,,,,,
385,6669,,,,,
385,6679,,,,,
388,6689,,,,,
383,6701,,,,,
374,6711,,,,,
359,6721,,,,,
340,6731,,,,,
324,6742,,,,,
316,6752,,,,,
307,6762,,,,,
305,6773,,,,,
302,6784,,,,,
304,6794,,,,,
307,6804,,,,,
309,6814,,,,,
311,6824,,,,,
316,6836,,,,,
318,6846,,,,,
321,6856,,,,,
323,6866,,,,,
325,6877,,,,,
335,6887,,,,,
337,6897,,,,,
335,6908,,,,,
330,6919,,,,,
318,6929,,,,,
314,6939,,,,,
314,6949,,,,,
314,6960,,,,,
316,6971,,,,,
315,6981,,,,,
309,6991,,,,,
274,7002,,,,,
398,7012,,,,,
660,7022,,,,,
563,7033,,,,,
241,7044,,,,,
247,7054,,,,,
291,7064,,,,,
310,7074,,,,,
312,7085,,,,,
321,7095,,,,,
322,7106,,,,,
328,7116,,,,,
334,7127,,,,,
339,7137,,,,,
344,7147,,,,,
352,7157,,,,,
359,7169,,,,,
367,7179,,,,,
379,7189,,,,,
386,7199,,,,,
390,7209,,,,,
389,7220,,,,,
384,7230,,,,,
372,7241,,,,,
358,7251,,,,,
338,7262,,,,,
323,7272,,,,,
312,7282,,,,,
310,7292,,,,,
305,7304,,,,,
305,7314,,,,,
302,7324,,,,,
304,7334,,,,,
305,7345,,,,,
311,7355,,,,,
313,7366,,,,,
316,7376,,,,,
320,7387,,,,,
324,7397,,,,,
324,7407,,,,,
325,7417,,,,,
333,7428,,,,,
336,7439,,,,,
335,7449,,,,,
328,7459,,,,,
319,7470,,,,,
314,7480,,,,,
315,7490,,,,,
312,7501,,,,,
313,7512,,,,,
314,7522,,,,,
307,7532,,,,,
272,7542,,,,,
404,7553,,,,,
660,7563,,,,,
557,7574,,,,,
245,7584,,,,,
250,7595,,,,,
295,7605,,,,,
312,7615,,,,,
315,7625,,,,,
321,7636,,,,,
324,7647,,,,,
333,7657,,,,,
335,7667,,,,,
340,7677,,,,,
343,7688,,,,,
351,7699,,,,,
361,7709,,,,,
369,7719,,,,,
379,7730,,,,,
386,7740,,,,,
392,7750,,,,,
391,7760,,,,,
388,7772,,,,,
376,7782,,,,,
360,7792,,,,,
339,7802,,,,,
324,7813,,,,,
311,7823,,,,,
307,7834,,,,,
305,7844,,,,,
305,7855,,,,,
303,7865,,,,,
307,7875,,,,,
308,7885,,,,,
312,7896,,,,,
313,7907,,,,,
316,7917,,,,,
318,7927,,,,,
318,7938,,,,,
320,7948,,,,,
322,7958,,,,,
324,7969,,,,,
319,7980,,,,,
327,7990,,,,,
337,8000,,,,,
335,8010,,,,,
331,8020,,,,,
325,8032,,,,,
317,8042,,,,,
316,8052,,,,,
313,8062,,,,,
317,8073,,,,,
316,8083,,,,,
318,8093,,,,,
289,8104,,,,,
325,8115,,,,,
575,8125,,,,,
659,8135,,,,,
361,8145,,,,,
245,8156,,,,,
282,8167,,,,,
311,8177,,,,,
314,8187,,,,,
318,8198,,,,,
323,8208,,,,,
329,8218,,,,,
334,8228,,,,,
338,8240,,,,,
343,8250,,,,,
349,8260,,,,,
357,8270,,,,,
363,8281,,,,,
375,8291,,,,,
381,8302,,,,,
391,8312,,,,,
393,8323,,,,,
393,8333,,,,,
385,8343,,,,,
370,8353,,,,,
350,8365,,,,,
331,8375,,,,,
316,8385,,,,,
309,8395,,,,,
305,8406,,,,,
307,8416,,,,,
305,8426,,,,,
306,8437,,,,,
308,8448,,,,,
309,8458,,,,,
311,8468,,,,,
314,8478,,,,,
316,8488,,,,,
317,8500,,,,,
316,8510,,,,,
317,8520,,,,,
319,8530,,,,,
317,8541,,,,,
320,8551,,,,,
319,8561,,,,,
323,8572,,,,,
320,8583,,,,,
334,8593,,,,,
338,8603,,,,,
334,8613,,,,,
328,8624,,,,,
320,8635,,,,,
316,8645,,,,,
317,8655,,,,,
315,8666,,,,,
316,8676,,,,,
317,8686,,,,,
309,8697,,,,,
289,8708,,,,,
444,8718,,,,,
661,8728,,,,,
534,8738,,,,,
257,8749,,,,,
262,8759,,,,,
303,8770,,,,,
311,8780,,,,,
314,8791,,,,,
319,8801,,,,,
326,8811,,,,,
327,8821,,,,,
335,8833,,,,,
339,8843,,,,,
343,8853,,,,,
349,8863,,,,,
360,8873,,,,,
367,8884,,,,,
378,8894,,,,,
384,8905,,,,,
393,8915,,,,,
393,8926,,,,,
391,8936,,,,,
380,8946,,,,,
363,8956,,,,,
343,8968,,,,,
325,8978,,,,,
313,8988,,,,,
307,8998,,,,,
304,9009,,,,,
304,9019,,,,,
305,9030,,,,,
306,9040,,,,,
308,9051,,,,,
308,9061,,,,,
311,9071,,,,,
312,9081,,,,,
315,9092,,,,,
315,9103,,,,,
319,9113,,,,,
318,9123,,,,,
318,9134,,,,,
317,9144,,,,,
319,9154,,,,,
318,9165,,,,,
319,9176,,,,,
320,9186,,,,,
323,9196,,,,,
320,9206,,,,,
327,9217,,,,,
338,9227,,,,,
339,9238,,,,,
335,9248,,,,,
328,9259,,,,,
322,9269,,,,,
320,9279,,,,,
322,9289,,,,,
320,9300,,,,,
320,9311,,,,,
320,9321,,,,,
296,9331,,,,,
331,9341,,,,,
578,9352,,,,,
658,9363,,,,,
365,9373,,,,,
251,9383,,,,,
288,9394,,,,,
311,9404,,,,,
317,9414,,,,,
319,9424,,,,,
324,9436,,,,,
328,9446,,,,,
335,9456,,,,,
339,9466,,,,,
345,9477,,,,,
349,9487,,,,,
358,9498,,,,,
366,9508,,,,,
376,9519,,,,,
385,9529,,,,,
393,9539,,,,,
398,9549,,,,,
396,9560,,,,,
391,9571,,,,,
378,9581,,,,,
362,9591,,,,,
339,9602,,,,,
324,9612,,,,,
313,9622,,,,,
310,9633,,,,,
307,9644,,,,,
308,9654,,,,,
307,9664,,,,,
308,9674,,,,,
307,9684,,,,,
312,9696,,,,,
313,9706,,,,,
314,9716,,,,,
314,9726,,,,,
318,9737,,,,,
316,9747,,,,,
317,9757,,,,,
318,9768,,,,,
320,9779,,,,,
319,9789,,,,,
317,9799,,,,,
318,9809,,,,,
318,9820,,,,,
322,9831,,,,,
320,9841,,,,,
323,9851,,,,,
320,9862,,,,,
328,9872,,,,,
338,9882,,,,,
342,9892,,,,,
335,9904,,,,,
332,9914,,,,,
321,9924,,,,,
321,9934,,,,,
319,9945,,,,,
321,9955,,,,,
320,9966,,,,,
325,9976,,,,,
303,9987,,,,,
310,9997,,,,,
520,10007,,,,,
660,10018,,,,,
361,10031,,,,,
251,10042,,,,,
295,10053,,,,,
312,10064,,,,,
317,10076,,,,,
321,10087,,,,,
328,10099,,,,,
334,10110,,,,,
338,10122,,,,,
344,10133,,,,,
350,10144,,,,,
359,10156,,,,,
365,10168,,,,,
376,10179,,,,,
386,10190,,,,,
394,10202,,,,,
395,10213,,,,,
391,10224,,,,,
382,10236,,,,,
363,10248,,,,,
341,10259,,,,,
323,10270,,,,,
313,10281,,,,,
309,10293,,,,,
305,10305,,,,,
308,10316,,,,,
309,10328,,,,,
309,10339,,,,,
311,10350,,,,,
311,10362,,,,,
315,10374,,,,,
315,10385,,,,,
317,10396,,,,,
318,10407,,,,,
319,10419,,,,,
319,10431,,,,,
318,10442,,,,,
320,10454,,,,,
319,10465,,,,,
320,10476,,,,,
318,10487,,,,,
320,10500,,,,,
320,10511,,,,,
322,10522,,,,,
337,10533,,,,,
337,10545,,,,,
335,10556,,,,,
327,10568,,,,,
320,10579,,,,,
321,10591,,,,,
319,10602,,,,,
322,10613,,,,,
322,10625,,,,,
308,10637,,,,,
310,10648,,,,,
548,10659,,,,,
657,10671,,,,,
321,10682,,,,,
252,10694,,,,,
297,10705,,,,,
313,10717,,,,,
316,10728,,,,,
322,10739,,,,,
328,10750,,,,,
332,10763,,,,,
338,10774,,,,,
342,10785,,,,,
351,10797,,,,,
357,10808,,,,,
366,10819,,,,,
378,10831,,,,,
388,10843,,,,,
396,10854,,,,,
395,10865,,,,,
393,10876,,,,,
380,10888,,,,,
359,10900,,,,,
338,10911,,,,,
322,10923,,,,,
312,10934,,,,,
306,10945,,,,,
308,10956,,,,,
306,10969,,,,,
307,10980,,,,,
311,10991,,,,,
309,11002,,,,,
313,11014,,,,,
313,11025,,,,,
317,11037,,,,,
318,11048,,,,,
319,11060,,,,,
318,11071,,,,,
319,11082,,,,,
321,11095,,,,,
319,11106,,,,,
320,11117,,,,,
320,11128,,,,,
321,11140,,,,,
319,11151,,,,,
324,11163,,,,,
338,11174,,,,,
334,11186,,,,,
333,11197,,,,,
324,11208,,,,,
320,11219,,,,,
320,11232,,,,,
318,11243,,,,,
323,11254,,,,,
323,11266,,,,,
297,11277,,,,,
359,11288,,,,,
643,11300,,,,,
587,11312,,,,,
255,11323,,,,,
264,11334,,,,,
306,11345,,,,,
317,11357,,,,,
319,11369,,,,,
324,11380,,,,,
331,11392,,,,,
333,11403,,,,,
341,11414,,,,,
345,11426,,,,,
352,11438,,,,,
361,11449,,,,,
373,11460,,,,,
383,11471,,,,,
391,11483,,,,,
399,11495,,,,,
399,11506,,,,,
393,11517,,,,,
377,11529,,,,,
354,11540,,,,,
333,11551,,,,,
318,11564,,,,,
311,11575,,,,,
307,11586,,,,,
307,11597,,,,,
307,11609,,,,,
307,11620,,,,,
309,11632,,,,,
310,11643,,,,,
313,11655,,,,,
315,11666,,,,,
317,11677,,,,,
319,11688,,,,,
322,11701,,,,,
323,11712,,,,,
320,11723,,,,,
322,11735,,,,,
322,11746,,,,,
322,11757,,,,,
321,11769,,,,,
319,11781,,,,,
326,11792,,,,,
337,11803,,,,,
337,11814,,,,,
334,11827,,,,,
327,11838,,,,,
321,11849,,,,,
320,11860,,,,,
324,11872,,,,,
322,11883,,,,,
325,11895,,,,,
299,11907,,,,,
351,11918,,,,,
630,11929,,,,,
598,11940,,,,,
263,11952,,,,,
263,11964,,,,,
308,11975,,,,,
315,11986,,,,,
320,11998,,,,,
325,12009,,,,,
331,12020,,,,,
338,12033,,,,,
341,12044,,,,,
347,12055,,,,,
352,12066,,,,,
363,12078,,,,,
371,12089,,,,,
380,12101,,,,,
393,12112,,,,,
396,12124,,,,,
398,12135,,,,,
390,12146,,,,,
376,12158,,,,,
357,12170,,,,,
334,12181,,,,,
320,12192,,,,,
309,12204,,,,,
309,12215,,,,,
306,12227,,,,,
307,12238,,,,,
307,12250,,,,,
309,12261,,,,,
314,12272,,,,,
312,12283,,,,,
315,12296,,,,,
317,12307,,,,,
317,12318,,,,,
318,12329,,,,,
317,12341,,,,,
321,12352,,,,,
320,12364,,,,,
319,12376,,,,,
319,12387,,,,,
318,12398,,,,,
323,12409,,,,,
336,12421,,,,,
335,12433,,,,,
333,12444,,,,,
326,12455,,,,,
320,12467,,,,,
319,12478,,,,,
321,12489,,,,,
321,12502,,,,,
321,12513,,,,,
300,12524,,,,,
338,12535,,,,,
604,12547,,,,,
622,12559,,,,,
275,12570,,,,,
255,12581,,,,,
302,12593,,,,,
313,12604,,,,,
318,12615,,,,,
322,12627,,,,,
329,12639,,,,,
333,12650,,,,,
339,12661,,,,,
346,12673,,,,,
349,12684,,,,,
358,12696,,,,,
366,12707,,,,,
377,12719,,,,,
384,12730,,,,,
393,12741,,,,,
392,12752,,,,,
389,12765,,,,,
380,12776,,,,,
358,12787,,,,,
336,12798,,,,,
319,12810,,,,,
309,12821,,,,,
308,12833,,,,,
305,12845,,,,,
305,12856,,,,,
306,12867,,,,,
308,12878,,,,,
309,12891,,,,,
310,12902,,,,,
315,12913,,,,,
318,12924,,,,,
320,12936,,,,,
319,12947,,,,,
321,12959,,,,,
325,12971,,,,,
320,12982,,,,,
319,12993,,,,,
319,13004,,,,,
328,13016,,,,,
336,13028,,,,,
336,13039,,,,,
332,13050,,,,,
325,13062,,,,,
319,13073,,,,,
316,13084,,,,,
318,13096,,,,,
317,13108,,,,,
319,13119,,,,,
312,13130,,,,,
321,13142,,,,,
559,13153,,,,,
630,13165,,,,,
261,13176,,,,,
228,13188,,,,,
291,13199,,,,,
317,13210,,,,,
322,13221,,,,,
328,13234,,,,,
332,13245,,,,,
339,13256,,,,,
343,13267,,,,,
347,13279,,,,,
355,13291,,,,,
363,13302,,,,,
374,13314,,,,,
381,13325,,,,,
394,13336,,,,,
399,13347,,,,,
402,13360,,,,,
398,13371,,,,,
384,13382,,,,,
366,13393,,,,,
342,13405,,,,,
325,13416,,,,,
311,13428,,,,,
305,13440,,,,,
304,13451,,,,,
305,13462,,,,,
305,13473,,,,,
305,13485,,,,,
311,13497,,,,,
311,13508,,,,,
315,13519,,,,,
317,13531,,,,,
318,13542,,,,,
320,13553,,,,,
319,13565,,,,,
320,13577,,,,,
318,13588,,,,,
327,13599,,,,,
332,13611,,,,,
329,13623,,,,,
327,13634,,,,,
318,13645,,,,,
317,13657,,,,,
314,13668,,,,,
314,13679,,,,,
317,13691,,,,,
313,13703,,,,,
292,13714,,,,,
417,13725,,,,,
660,13736,,,,,
433,13748,,,,,
205,13760,,,,,
263,13771,,,,,
307,13783,,,,,
317,13794,,,,,
319,13805,,,,,
326,13816,,,,,
331,13829,,,,,
336,13840,,,,,
342,13851,,,,,
347,13862,,,,,
357,13874,,,,,
364,13885,,,,,
375,13897,,,,,
386,13908,,,,,
394,13920,,,,,
397,13931,,,,,
395,13942,,,,,
388,13954,,,,,
368,13966,,,,,
348,13977,,,,,
327,13988,,,,,
315,14000,,,,,
309,14011,,,,,
306,14023,,,,,
306,14034,,,,,
305,14046,,,,,
310,14057,,,,,
311,14068,,,,,
313,14080,,,,,
317,14092,,,,,
316,14103,,,,,
319,14114,,,,,
321,14126,,,,,
324,14137,,,,,
322,14148,,,,,
321,14160,,,,,
327,14172,,,,,
336,14183,,,,,
335,14194,,,,,
331,14205,,,,,
325,14217,,,,,
318,14229,,,,,
317,14240,,,,,
319,14252,,,,,
315,14263,,,,,
319,14274,,,,,
301,14285,,,,,
326,14298,,,,,
588,14309,,,,,
634,14320,,,,,
279,14331,,,,,
249,14343,,,,,
298,14355,,,,,
312,14366,,,,,
318,14377,,,,,
320,14389,,,,,
325,14400,,,,,
331,14411,,,,,
334,14424,,,,,
343,14435,,,,,
347,14446,,,,,
357,14457,,,,,
365,14469,,,,,
378,14480,,,,,
385,14492,,,,,
387,14503,,,,,
391,14515,,,,,
384,14526,,,,,
372,14537,,,,,
353,14548,,,,,
331,14561,,,,,
317,14572,,,,,
307,14583,,,,,
305,14595,,,,,
304,14606,,,,,
308,14617,,,,,
309,14629,,,,,
312,14641,,,,,
315,14652,,,,,
314,14663,,,,,
315,14674,,,,,
316,14686,,,,,
318,14698,,,,,
321,14709,,,,,
322,14721,,,,,
319,14732,,,,,
327,14743,,,,,
338,14755,,,,,
332,14767,,,,,
332,14778,,,,,
322,14789,,,,,
316,14800,,,,,
317,14812,,,,,
317,14824,,,,,
319,14835,,,,,
317,14846,,,,,
297,14858,,,,,
331,14869,,,,,
604,14880,,,,,
627,14893,,,,,
273,14904,,,,,
254,14915,,,,,
302,14926,,,,,
314,14938,,,,,
315,14949,,,,,
320,14961,,,,,
327,14972,,,,,
331,14984,,,,,
339,14995,,,,,
342,15006,,,,,
351,15017,,,,,
357,15030,,,,,
368,15041,,,,,
377,15052,,,,,
384,15064,,,,,
392,15075,,,,,
391,15087,,,,,
384,15098,,,,,
371,15110,,,,,
353,15121,,,,,
336,15132,,,,,
317,15143,,,,,
311,15156,,,,,
308,15167,,,,,
310,15178,,,,,
308,15190,,,,,
310,15201,,,,,
313,15212,,,,,
312,15224,,,,,
317,15236,,,,,
318,15247,,,,,
321,15258,,,,,
321,15269,,,,,
323,15281,,,,,
324,15293,,,,,
325,15304,,,,,
338,15315,,,,,
340,15327,,,,,
337,15338,,,,,
331,15349,,,,,
323,15362,,,,,
322,15373,,,,,
321,15384,,,,,
322,15395,,,,,
324,15407,,,,,
322,15418,,,,,
291,15430,,,,,
445,15441,,,,,
661,15453,,,,,
455,15464,,,,,
250,15475,,,,,
288,15488,,,,,
322,15499,,,,,
325,15510,,,,,
330,15521,,,,,
336,15533,,,,,
343,15544,,,,,
349,15556,,,,,
353,15567,,,,,
362,15579,,,,,
371,15590,,,,,
381,15601,,,,,
389,15612,,,,,
400,15625,,,,,
410,15636,,,,,
412,15647,,,,,
411,15659,,,,,
401,15670,,,,,
386,15681,,,,,
367,15693,,,,,
350,15705,,,,,
341,15716,,,,,
335,15727,,,,,
338,15738,,,,,
336,15750,,,,,
337,15762,,,,,
343,15773,,,,,
341,15784,,,,,
347,15796,,,,,
347,15807,,,,,
353,15819,,,,,
357,15831,,,,,
364,15842,,,,,
366,15853,,,,,
362,15864,,,,,
376,15876,,,,,
383,15888,,,,,
381,15899,,,,,
376,15910,,,,,
366,15922,,,,,
365,15933,,,,,
361,15944,,,,,
366,15956,,,,,
366,15968,,,,,
366,15979,,,,,
338,15990,,,,,
418,16002,,,,,
661,16013,,,,,
591,16025,,,,,
262,16036,,,,,
294,16048,,,,,
348,16059,,,,,
359,16070,,,,,
365,16081,,,,,
372,16094,,,,,
372,16105,,,,,
379,16116,,,,,
382,16128,,,,,
389,16139,,,,,
395,16150,,,,,
404,16162,,,,,
416,16174,,,,,
419,16185,,,,,
431,16196,,,,,
432,16207,,,,,
431,16220,,,,,
422,16231,,,,,
405,16242,,,,,
386,16253,,,,,
359,16265,,,,,
346,16276,,,,,
337,16288,,,,,
334,16300,,,,,
333,16311,,,,,
330,16322,,,,,
331,16333,,,,,
329,16345,,,,,
333,16357,,,,,
334,16368,,,,,
339,16379,,,,,
339,16391,,,,,
341,16402,,,,,
340,16413,,,,,
339,16425,,,,,
348,16437,,,,,
349,16448,,,,,
345,16459,,,,,
340,16471,,,,,
331,16482,,,,,
324,16494,,,,,
323,16505,,,,,
323,16517,,,,,
323,16528,,,,,
320,16539,,,,,
292,16551,,,,,
394,16563,,,,,
660,16574,,,,,
487,16585,,,,,
209,16596,,,,,
257,16608,,,,,
302,16620,,,,,
311,16631,,,,,
315,16643,,,,,
319,16654,,,,,
322,16665,,,,,
330,16676,,,,,
333,16689,,,,,
341,16700,,,,,
347,16711,,,,,
354,16722,,,,,
365,16734,,,,,
372,16745,,,,,
380,16757,,,,,
382,16769,,,,,
381,16780,,,,,
370,16791,,,,,
355,16802,,,,,
335,16814,,,,,
311,16826,,,,,
300,16837,,,,,
292,16848,,,,,
292,16860,,,,,
290,16871,,,,,
288,16882,,,,,
291,16894,,,,,
292,16906,,,,,
295,16917,,,,,
296,16928,,,,,
301,16940,,,,,
304,16952,,,,,
305,16963,,,,,
307,16974,,,,,
309,16986,,,,,
319,16997,,,,,
318,17008,,,,,
316,17020,,,,,
306,17032,,,,,
298,17043,,,,,
299,17054,,,,,
297,17065,,,,,
299,17077,,,,,
297,17089,,,,,
290,17100,,,,,
273,17112,,,,,
465,17123,,,,,
657,17134,,,,,
338,17145,,,,,
215,17158,,,,,
265,17169,,,,,
291,17180,,,,,
295,17191,,,,,
303,17203,,,,,
308,17214,,,,,
312,17226,,,,,
318,17238,,,,,
321,17249,,,,,
327,17260,,,,,
334,17271,,,,,
343,17284,,,,,
354,17295,,,,,
362,17306,,,,,
368,17317,,,,,
369,17329,,,,,
366,17340,,,,,
357,17352,,,,,
337,17363,,,,,
317,17375,,,,,
299,17386,,,,,
294,17397,,,,,
287,17409,,,,,
287,17421,,,,,
288,17432,,,,,
287,17443,,,,,
292,17455,,,,,
293,17466,,,,,
297,17477,,,,,
297,17489,,,,,
300,17501,,,,,
302,17512,,,,,
303,17523,,,,,
303,17534,,,,,
309,17546,,,,,
320,17558,,,,,
318,17569,,,,,
315,17581,,,,,
305,17592,,,,,
302,17603,,,,,
298,17614,,,,,
298,17627,,,,,
300,17638,,,,,
300,17649,,,,,
287,17660,,,,,
284,17672,,,,,
522,17684,,,,,
649,17695,,,,,
299,17707,,,,,
230,17718,,,,,
279,17729,,,,,
296,17740,,,,,
299,17753,,,,,
303,17764,,,,,
313,17775,,,,,
313,17786,,,,,
320,17798,,,,,
324,17809,,,,,
332,17821,,,,,
341,17832,,,,,
349,17844,,,,,
361,17855,,,,,
367,17866,,,,,
374,17878,,,,,
372,17890,,,,,
368,17901,,,,,
357,17912,,,,,
339,17924,,,,,
320,17935,,,,,
305,17946,,,,,
301,17958,,,,,
295,17970,,,,,
295,17981,,,,,
297,17992,,,,,
298,18003,,,,,
302,18016,,,,,
304,18027,,,,,
308,18038,,,,,
308,18050,,,,,
311,18061,,,,,
314,18072,,,,,
315,18084,,,,,
320,18096,,,,,
320,18107,,,,,
334,18118,,,,,
337,18129,,,,,
335,18141,,,,,
331,18153,,,,,
322,18164,,,,,
323,18176,,,,,
323,18187,,,,,
326,18198,,,,,
328,18209,,,,,
329,18222,,,,,
302,18233,,,,,
391,18244,,,,,
660,18255,,,,,
579,18267,,,,,
273,18278,,,,,
291,18290,,,,,
333,18301,,,,,
339,18313,,,,,
347,18324,,,,,
357,18335,,,,,
363,18347,,,,,
371,18359,,,,,
376,18370,,,,,
384,18381,,,,,
394,18393,,,,,
402,18404,,,,,
416,18416,,,,,
423,18427,,,,,
436,18439,,,,,
438,18450,,,,,
438,18461,,,,,
433,18472,,,,,
418,18485,,,,,
402,18496,,,,,
381,18507,,,,,
372,18519,,,,,
367,18530,,,,,
366,18541,,,,,
367,18553,,,,,
368,18565,,,,,
373,18576,,,,,
374,18587,,,,,
377,18598,,,,,
379,18610,,,,,
382,18622,,,,,
383,18633,,,,,
384,18644,,,,,
387,18656,,,,,
385,18667,,,,,
385,18678,,,,,
396,18691,,,,,
401,18702,,,,,
396,18713,,,,,
391,18724,,,,,
382,18736,,,,,
376,18748,,,,,
374,18759,,,,,
372,18770,,,,,
374,18782,,,,,
373,18793,,,,,
349,18804,,,,,
391,18817,,,,,
659,18828,,,,,
656,18839,,,,,
327,18850,,,,,
308,18862,,,,,
353,18873,,,,,
360,18885,,,,,
365,18896,,,,,
369,18908,,,,,
376,18919,,,,,
378,18930,,,,,
381,18941,,,,,
386,18954,,,,,
391,18965,,,,,
400,18976,,,,,
405,18988,,,,,
416,18999,,,,,
419,19010,,,,,
421,19022,,,,,
420,19034,,,,,
412,19045,,,,,
398,19056,,,,,
375,19067,,,,,
355,19079,,,,,
336,19091,,,,,
328,19102,,,,,
323,19113,,,,,
321,19125,,,,,
323,19136,,,,,
323,19148,,,,,
323,19160,,,,,
323,19171,,,,,
325,19182,,,,,
325,19193,,,,,
323,19205,,,,,
325,19217,,,,,
324,19228,,,,,
325,19239,,,,,
320,19251,,,,,
329,19262,,,,,
333,19273,,,,,
329,19286,,,,,
322,19297,,,,,
311,19308,,,,,
307,19319,,,,,
306,19331,,,,,
305,19342,,,,,
302,19354,,,,,
301,19365,,,,,
280,19377,,,,,
325,19388,,,,,
611,19399,,,,,
554,19410,,,,,
213,19423,,,,,
232,19434,,,,,
283,19445,,,,,
294,19457,,,,,
295,19468,,,,,
303,19480,,,,,
307,19491,,,,,
313,19503,,,,,
320,19514,,,,,
323,19525,,,,,
331,19536,,,,,
337,19549,,,,,
349,19560,,,,,
359,19571,,,,,
368,19582,,,,,
372,19594,,,,,
368,19605,,,,,
363,19617,,,,,
350,19629,,,,,
329,19640,,,,,
306,19651,,,,,
293,19662,,,,,
283,19674,,,,,
279,19686,,,,,
282,19697,,,,,
279,19708,,,,,
282,19720,,,,,
286,19731,,,,,
286,19742,,,,,
289,19755,,,,,
290,19766,,,,,
294,19777,,,,,
294,19788,,,,,
296,19800,,,,,
295,19811,,,,,
305,19823,,,,,
307,19834,,,,,
306,19846,,,,,
300,19857,,,,,
289,19868,,,,,
289,19880,,,,,
290,19892,,,,,
288,19903,,,,,
290,19914,,,,,
289,19926,,,,,
263,19937,,,,,
340,19949,,,,,
637,19960,,,,,
506,19972,,,,,
200,19983,,,,,
231,19994,,,,,
275,20005,,,,,
289,20018,,,,,
291,20029,,,,,
298,20040,,,,,
305,20051,,,,,
308,20063,,,,,
315,20074,,,,,
321,20086,,,,,
329,20098,,,,,
335,20109,,,,,
346,20120,,,,,
352,20131,,,,,
356,20143,,,,,
363,20155,,,,,
359,20166,,,,,
355,20177,,,,,
339,20189,,,,,
319,20200,,,,,
299,20212,,,,,
282,20224,,,,,
280,20235,,,,,
278,20246,,,,,
277,20257,,,,,
274,20269,,,,,
279,20281,,,,,
280,20292,,,,,
282,20303,,,,,
285,20315,,,,,
287,20326,,,,,
293,20337,,,,,
295,20349,,,,,
297,20361,,,,,
304,20372,,,,,
309,20383,,,,,
309,20395,,,,,
299,20406,,,,,
291,20418,,,,,
286,20429,,,,,
288,20441,,,,,
287,20452,,,,,
287,20463,,,,,
288,20474,,,,,
263,20487,,,,,
318,20498,,,,,
594,20509,,,,,
538,20520,,,,,
204,20532,,,,,
226,20543,,,,,
277,20555,,,,,
289,20567,,,,,
297,20578,,,,,
299,20589,,,,,
304,20600,,,,,
308,20613,,,,,
309,20624,,,,,
319,20635,,,,,
325,20646,,,,,
334,20658,,,,,
342,20669,,,,,
354,20681,,,,,
359,20692,,,,,
366,20704,,,,,
366,20715,,,,,
359,20726,,,,,
345,20738,,,,,
326,20750,,,,,
307,20761,,,,,
293,20772,,,,,
290,20784,,,,,
287,20795,,,,,
286,20806,,,,,
288,20818,,,,,
289,20830,,,,,
293,20841,,,,,
296,20852,,,,,
300,20864,,,,,
305,20875,,,,,
307,20887,,,,,
307,20898,,,,,
312,20910,,,,,
323,20921,,,,,
325,20932,,,,,
324,20944,,,,,
316,20956,,,,,
307,20967,,,,,
305,20978,,,,,
305,20989,,,,,
305,21001,,,,,
306,21013,,,,,
297,21024,,,,,
271,21036,,,,,
455,21047,,,,,
659,21058,,,,,
374,21069,,,,,
225,21082,,,,,
274,21093,,,,,
299,21104,,,,,
303,21115,,,,,
307,21127,,,,,
313,21138,,,,,
316,21150,,,,,
324,21161,,,,,
329,21173,,,,,
336,21184,,,,,
346,21195,,,,,
351,21207,,,,,
364,21219,,,,,
372,21230,,,,,
379,21241,,,,,
379,21253,,,,,
374,21264,,,,,
367,21275,,,,,
349,21287,,,,,
333,21299,,,,,
316,21310,,,,,
307,21321,,,,,
304,21332,,,,,
304,21345,,,,,
306,21356,,,,,
306,21367,,,,,
312,21379,,,,,
313,21390,,,,,
315,21401,,,,,
317,21413,,,,,
321,21425,,,,,
326,21436,,,,,
323,21447,,,,,
333,21458,,,,,
339,21470,,,,,
340,21482,,,,,
332,21493,,,,,
323,21505,,,,,
320,21516,,,,,
318,21527,,,,,
321,21538,,,,,
319,21551,,,,,
321,21562,,,,,
299,21573,,,,,
315,21584,,,,,
580,21596,,,,,
637,21607,,,,,
283,21619,,,,,
250,21630,,,,,
301,21642,,,,,
313,21653,,,,,
318,21664,,,,,
323,21677,,,,,
327,21688,,,,,
334,21699,,,,,
337,21710,,,,,
343,21722,,,,,
351,21733,,,,,
355,21745,,,,,
368,21756,,,,,
374,21768,,,,,
383,21779,,,,,
385,21790,,,,,
386,21801,,,,,
380,21814,,,,,
367,21825,,,,,
352,21836,,,,,
331,21848,,,,,
320,21859,,,,,
312,21870,,,,,
311,21882,,,,,
312,21894,,,,,
311,21905,,,,,
316,21916,,,,,
314,21927,,,,,
319,21939,,,,,
319,21951,,,,,
321,21962,,,,,
324,21974,,,,,
325,21985,,,,,
323,21996,,,,,
335,22007,,,,,
342,22020,,,,,
337,22031,,,,,
333,22042,,,,,
323,22053,,,,,
318,22065,,,,,
321,22077,,,,,
319,22088,,,,,
321,22099,,,,,
322,22111,,,,,
293,22122,,,,,
338,22133,,,,,
619,22146,,,,,
601,22157,,,,,
261,22168,,,,,
263,22179,,,,,
307,22191,,,,,
317,22202,,,,,
321,22214,,,,,
325,22225,,,,,
333,22237,,,,,
336,22248,,,,,
341,22259,,,,,
347,22270,,,,,
354,22283,,,,,
360,22294,,,,,
369,22305,,,,,
379,22317,,,,,
385,22328,,,,,
389,22339,,,,,
386,22351,,,,,
379,22363,,,,,
368,22374,,,,,
350,22385,,,,,
333,22396,,,,,
319,22409,,,,,
314,22420,,,,,
313,22431,,,,,
315,22443,,,,,
314,22454,,,,,
315,22465,,,,,
317,22477,,,,,
319,22489,,,,,
321,22500,,,,,
321,22511,,,,,
323,22522,,,,,
326,22534,,,,,
329,22546,,,,,
327,22557,,,,,
335,22568,,,,,
344,22580,,,,,
340,22591,,,,,
333,22602,,,,,
324,22615,,,,,
319,22626,,,,,
321,22637,,,,,
319,22648,,,,,
321,22660,,,,,
320,22671,,,,,
291,22683,,,,,
362,22694,,,,,
650,22706,,,,,
561,22717,,,,,
244,22728,,,,,
266,22739,,,,,
308,22752,,,,,
315,22763,,,,,
321,22774,,,,,
326,22786,,,,,
331,22797,,,,,
334,22809,,,,,
340,22820,,,,,
345,22832,,,,,
352,22843,,,,,
360,22854,,,,,
368,22865,,,,,
377,22878,,,,,
382,22889,,,,,
388,22900,,,,,
385,22912,,,,,
377,22923,,,,,
365,22934,,,,,
347,22946,,,,,
330,22958,,,,,
313,22969,,,,,
310,22980,,,,,
309,22991,,,,,
309,23003,,,,,
310,23015,,,,,
311,23026,,,,,
317,23037,,,,,
316,23049,,,,,
320,23060,,,,,
319,23071,,,,,
322,23084,,,,,
321,23095,,,,,
325,23106,,,,,
325,23117,,,,,
326,23129,,,,,
339,23141,,,,,
341,23152,,,,,
335,23163,,,,,
323,23175,,,,,
317,23186,,,,,
315,23197,,,,,
317,23209,,,,,
317,23221,,,,,
317,23232,,,,,
308,23243,,,,,
293,23255,,,,,
502,23266,,,,,
658,23278,,,,,
331,23289,,,,,
233,23301,,,,,
286,23312,,,,,
312,23323,,,,,
316,23334,,,,,
321,23347,,,,,
330,23358,,,,,
333,23369,,,,,
337,23380,,,,,
343,23392,,,,,
350,23403,,,,,
356,23415,,,,,
363,23427,,,,,
376,23438,,,,,
381,23449,,,,,
385,23460,,,,,
387,23472,,,,,
380,23484,,,,,
373,23495,,,,,
357,23506,,,,,
338,23518,,,,,
321,23529,,,,,
315,23541,,,,,
310,23553,,,,,
309,23564,,,,,
310,23575,,,,,
311,23586,,,,,
314,23598,,,,,
313,23610,,,,,
318,23621,,,,,
320,23632,,,,,
320,23644,,,,,
321,23655,,,,,
324,23666,,,,,
324,23678,,,,,
325,23690,,,,,
338,23701,,,,,
339,23712,,,,,
332,23724,,,,,
322,23735,,,,,
315,23747,,,,,
315,23758,,,,,
312,23770,,,,,
317,23781,,,,,
316,23792,,,,,
310,23803,,,,,
287,23816,,,,,
467,23827,,,,,
660,23838,,,,,
375,23849,,,,,
232,23861,,,,,
283,23873,,,,,
311,23884,,,,,
315,23896,,,,,
320,23907,,,,,
327,23918,,,,,
331,23929,,,,,
336,23942,,,,,
341,23953,,,,,
348,23964,,,,,
354,23975,,,,,
361,23987,,,,,
371,23998,,,,,
377,24010,,,,,
386,24022,,,,,
385,24033,,,,,
380,24044,,,,,
371,24055,,,,,
355,24067,,,,,
339,24079,,,,,
323,24090,,,,,
314,24101,,,,,
308,24113,,,,,
309,24124,,,,,
308,24135,,,,,
309,24147,,,,,
313,24159,,,,,
312,24170,,,,,
316,24181,,,,,
315,24193,,,,,
319,24204,,,,,
320,24216,,,,,
320,24227,,,,,
325,24239,,,,,
321,24250,,,,,
327,24261,,,,,
337,24273,,,,,
339,24285,,,,,
336,24296,,,,,
324,24307,,,,,
319,24318,,,,,
315,24330,,,,,
318,24342,,,,,
317,24353,,,,,
317,24365,,,,,
305,24376,,,,,
306,24387,,,,,
543,24398,,,,,
653,24411,,,,,
305,24422,,,,,
241,24433,,,,,
296,24444,,,,,
315,24456,,,,,
319,24467,,,,,
323,24479,,,,,
328,24491,,,,,
334,24502,,,,,
338,24513,,,,,
343,24524,,,,,
350,24536,,,,,
356,24548,,,,,
367,24559,,,,,
373,24570,,,,,
383,24582,,,,,
385,24593,,,,,
387,24605,,,,,
381,24616,,,,,
367,24628,,,,,
354,24639,,,,,
335,24650,,,,,
319,24662,,,,,
310,24674,,,,,
306,24685,,,,,
307,24696,,,,,
308,24708,,,,,
311,24719,,,,,
312,24730,,,,,
315,24742,,,,,
317,24754,,,,,
318,24765,,,,,
321,24776,,,,,
320,24787,,,,,
325,24799,,,,,
324,24811,,,,,
323,24822,,,,,
334,24834,,,,,
337,24845,,,,,
336,24856,,,,,
324,24867,,,,,
318,24880,,,,,
315,24891,,,,,
317,24902,,,,,
317,24913,,,,,
317,24925,,,,,
313,24936,,,,,
283,24948,,,,,
420,24960,,,,,
660,24971,,,,,
434,24982,,,,,
224,24993,,,,,
275,25006,,,,,
312,25017,,,,,
315,25028,,,,,
323,25039,,,,,
326,25051,,,,,
332,25062,,,,,
338,25074,,,,,
340,25085,,,,,
347,25097,,,,,
353,25108,,,,,
364,25119,,,,,
371,25131,,,,,
381,25143,,,,,
386,25154,,,,,
384,25165,,,,,
383,25177,,,,,
374,25188,,,,,
361,25199,,,,,
341,25211,,,,,
326,25223,,,,,
316,25234,,,,,
310,25245,,,,,
309,25256,,,,,
309,25268,,,,,
311,25280,,,,,
312,25291,,,,,
313,25303,,,,,
318,25314,,,,,
319,25325,,,,,
322,25337,,,,,
323,25349,,,,,
327,25360,,,,,
323,25371,,,,,
329,25382,,,,,
339,25394,,,,,
339,25406,,,,,
336,25417,,,,,
323,25428,,,,,
318,25440,,,,,
318,25451,,,,,
319,25462,,,,,
321,25475,,,,,
319,25486,,,,,
303,25497,,,,,
309,25508,,,,,
554,25520,,,,,
634,25531,,,,,
284,25543,,,,,
248,25554,,,,,
302,25566,,,,,
318,25577,,,,,
320,25588,,,,,
325,25600,,,,,
330,25612,,,,,
335,25623,,,,,
340,25634,,,,,
344,25646,,,,,
352,25657,,,,,
358,25668,,,,,
366,25680,,,,,
375,25692,,,,,
384,25703,,,,,
384,25714,,,,,
383,25725,,,,,
378,25738,,,,,
365,25749,,,,,
350,25760,,,,,
333,25772,,,,,
320,25783,,,,,
312,25794,,,,,
309,25806,,,,,
313,25818,,,,,
311,25829,,,,,
313,25840,,,,,
311,25851,,,,,
317,25863,,,,,
318,25875,,,,,
321,25886,,,,,
326,25897,,,,,
323,25909,,,,,
332,25920,,,,,
339,25931,,,,,
340,25944,,,,,
333,25955,,,,,
322,25966,,,,,
320,25977,,,,,
315,25989,,,,,
317,26000,,,,,
317,26012,,,,,
319,26023,,,,,
296,26035,,,,,
308,26046,,,,,
567,26057,,,,,
611,26070,,,,,
261,26081,,,,,
247,26092,,,,,
306,26103,,,,,
315,26115,,,,,
318,26126,,,,,
324,26138,,,,,
326,26149,,,,,
333,26161,,,,,
339,26172,,,,,
344,26183,,,,,
351,26194,,,,,
356,26207,,,,,
366,26218,,,,,
373,26229,,,,,
380,26241,,,,,
379,26252,,,,,
381,26263,,,,,
375,26275,,,,,
362,26287,,,,,
348,26298,,,,,
329,26309,,,,,
317,26320,,,,,
310,26332,,,,,
307,26344,,,,,
307,26355,,,,,
309,26366,,,,,
312,26378,,,,,
314,26389,,,,,
319,26400,,,,,
317,26413,,,,,
323,26424,,,,,
326,26435,,,,,
324,26446,,,,,
334,26458,,,,,
339,26470,,,,,
342,26481,,,,,
334,26492,,,,,
321,26504,,,,,
317,26515,,,,,
318,26526,,,,,
320,26539,,,,,
318,26550,,,,,
320,26561,,,,,
296,26572,,,,,
312,26584,,,,,
580,26595,,,,,
607,26607,,,,,
262,26618,,,,,
254,26630,,,,,
308,26641,,,,,
317,26652,,,,,
322,26663,,,,,
328,26676,,,,,
332,26687,,,,,
340,26698,,,,,
342,26710,,,,,
349,26721,,,,,
354,26732,,,,,
363,26744,,,,,
371,26756,,,,,
379,26767,,,,,
384,26778,,,,,
385,26789,,,,,
384,26802,,,,,
378,26813,,,,,
371,26824,,,,,
355,26835,,,,,
337,26847,,,,,
326,26858,,,,,
320,26870,,,,,
319,26882,,,,,
318,26893,,,,,
321,26904,,,,,
323,26915,,,,,
325,26927,,,,,
329,26939,,,,,
327,26950,,,,,
334,26961,,,,,
336,26973,,,,,
335,26984,,,,,
346,26995,,,,,
350,27008,,,,,
350,27019,,,,,
339,27030,,,,,
331,27041,,,,,
326,27053,,,,,
325,27064,,,,,
326,27076,,,,,
326,27087,,,,,
329,27099,,,,,
292,27110,,,,,
369,27121,,,,,
650,27132,,,,,
509,27145,,,,,
228,27156,,,,,
261,27167,,,,,
303,27179,,,,,
306,27190,,,,,
313,27202,,,,,
318,27213,,,,,
324,27225,,,,,
330,27236,,,,,
334,27247,,,,,
342,27258,,,,,
348,27271,,,,,
358,27282,,,,,
366,27293,,,,,
373,27304,,,,,
379,27316,,,,,
379,27327,,,,,
378,27339,,,,,
371,27351,,,,,
359,27362,,,,,
343,27373,,,,,
328,27384,,,,,
319,27396,,,,,
313,27408,,,,,
312,27419,,,,,
311,27430,,,,,
314,27442,,,,,
315,27453,,,,,
320,27464,,,,,
322,27476,,,,,
323,27488,,,,,
330,27499,,,,,
328,27510,,,,,
329,27522,,,,,
337,27534,,,,,
340,27545,,,,,
339,27556,,,,,
330,27568,,,,,
322,27579,,,,,
318,27590,,,,,
319,27602,,,,,
318,27614,,,,,
320,27625,,,,,
313,27636,,,,,
277,27648,,,,,
409,27659,,,,,
660,27671,,,,,
435,27682,,,,,
233,27694,,,,,
281,27705,,,,,
314,27716,,,,,
315,27727,,,,,
322,27740,,,,,
327,27751,,,,,
333,27762,,,,,
337,27773,,,,,
342,27785,,,,,
350,27796,,,,,
357,27808,,,,,
363,27820,,,,,
368,27831,,,,,
378,27842,,,,,
380,27853,,,,,
379,27865,,,,,
377,27877,,,,,
368,27888,,,,,
356,27899,,,,,
339,27911,,,,,
324,27922,,,,,
312,27934,,,,,
309,27945,,,,,
308,27957,,,,,
308,27968,,,,,
315,27979,,,,,
312,27991,,,,,
314,28003,,,,,
316,28014,,,,,
315,28025,,,,,
321,28037,,,,,
323,28048,,,,,
324,28059,,,,,
333,28071,,,,,
337,28083,,,,,
330,28094,,,,,
321,28105,,,,,
315,28116,,,,,
313,28128,,,,,
313,28140,,,,,
313,28151,,,,,
316,28163,,,,,
306,28174,,,,,
275,28185,,,,,
436,28196,,,,,
660,28209,,,,,
392,28220,,,,,
212,28231,,,,,
270,28242,,,,,
303,28254,,,,,
309,28266,,,,,
315,28277,,,,,
321,28289,,,,,
329,28300,,,,,
331,28311,,,,,
337,28322,,,,,
343,28335,,,,,
348,28346,,,,,
360,28357,,,,,
365,28368,,,,,
376,28380,,,,,
379,28391,,,,,
379,28403,,,,,
376,28414,,,,,
367,28426,,,,,
350,28437,,,,,
330,28448,,,,,
315,28460,,,,,
305,28472,,,,,
302,28483,,,,,
300,28494,,,,,
302,28506,,,,,
303,28517,,,,,
305,28528,,,,,
307,28540,,,,,
309,28552,,,,,
316,28563,,,,,
320,28574,,,,,
317,28585,,,,,
325,28597,,,,,
332,28609,,,,,
334,28620,,,,,
326,28632,,,,,
315,28643,,,,,
311,28654,,,,,
311,28666,,,,,
313,28678,,,,,
312,28689,,,,,
311,28700,,,,,
280,28711,,,,,
353,28723,,,,,
646,28735,,,,,
518,28746,,,,,
216,28758,,,,,
252,28769,,,,,
299,28780,,,,,
306,28791,,,,,
312,28804,,,,,
319,28815,,,,,
325,28826,,,,,
328,28837,,,,,
333,28849,,,,,
340,28860,,,,,
346,28872,,,,,
356,28883,,,,,
364,28895,,,,,
372,28906,,,,,
378,28917,,,,,
380,28929,,,,,
377,28941,,,,,
369,28952,,,,,
355,28963,,,,,
337,28975,,,,,
319,28986,,,,,
310,28998,,,,,
303,29009,,,,,
305,29021,,,,,
304,29032,,,,,
305,29043,,,,,
307,29054,,,,,
310,29067,,,,,
315,29078,,,,,
318,29089,,,,,
322,29101,,,,,
323,29112,,,,,
327,29123,,,,,
337,29135,,,,,
339,29147,,,,,
336,29158,,,,,
323,29169,,,,,
318,29180,,,,,
316,29192,,,,,
317,29204,,,,,
315,29215,,,,,
315,29227,,,,,
300,29238,,,,,
290,29249,,,,,
526,29260,,,,,
638,29273,,,,,
287,29284,,,,,
236,29295,,,,,
294,29306,,,,,
312,29318,,,,,
314,29329,,,,,
323,29341,,,,,
328,29352,,,,,
334,29364,,,,,
338,29375,,,,,
345,29386,,,,,
352,29399,,,,,
357,29410,,,,,
365,29421,,,,,
375,29432,,,,,
383,29444,,,,,
385,29455,,,,,
383,29467,,,,,
378,29478,,,,,
368,29490,,,,,
351,29501,,,,,
331,29512,,,,,
319,29523,,,,,
311,29536,,,,,
308,29547,,,,,
309,29558,,,,,
310,29570,,,,,
315,29581,,,,,
316,29592,,,,,
319,29604,,,,,
319,29616,,,,,
320,29627,,,,,
327,29638,,,,,
327,29649,,,,,
327,29661,,,,,
339,29673,,,,,
343,29684,,,,,
339,29696,,,,,
329,29707,,,,,
320,29718,,,,,
317,29730,,,,,
319,29742,,,,,
319,29753,,,,,
321,29764,,,,,
311,29775,,,,,
285,29787,,,,,
481,29799,,,,,
659,29810,,,,,
375,29821,,,,,
241,29833,,,,,
293,29844,,,,,
314,29855,,,,,
317,29868,,,,,
323,29879,,,,,
327,29890,,,,,
331,29901,,,,,
336,29913,,,,,
343,29924,,,,,
347,29936,,,,,
354,29947,,,,,
365,29959,,,,,
372,29970,,,,,
381,29981,,,,,
382,29992,,,,,
384,30005,,,,,
379,30016,,,,,
368,30027,,,,,
354,30039,,,,,
334,30050,,,,,
321,30061,,,,,
312,30073,,,,,
310,30085,,,,,
309,30096,,,,,
310,30107,,,,,
313,30118,,,,,
314,30131,,,,,
315,30142,,,,,
316,30153,,,,,
318,30164,,,,,
319,30176,,,,,
323,30187,,,,,
325,30199,,,,,
320,30211,,,,,
327,30222,,,,,
339,30233,,,,,
339,30244,,,,,
331,30256,,,,,
321,30268,,,,,
319,30279,,,,,
315,30290,,,,,
317,30302,,,,,
316,30313,,,,,
317,30324,,,,,
293,30337,,,,,
327,30348,,,,,
603,30359,,,,,
616,30370,,,,,
271,30382,,,,,
256,30393,,,,,
303,30405,,,,,
310,30416,,,,,
314,30428,,,,,
320,30439,,,,,
324,30450,,,,,
331,30462,,,,,
335,30474,,,,,
340,30485,,,,,
347,30496,,,,,
356,30508,,,,,
365,30519,,,,,
372,30531,,,,,
379,30542,,,,,
383,30554,,,,,
382,30565,,,,,
375,30576,,,,,
362,30587,,,,,
345,30600,,,,,
327,30611,,,,,
316,30622,,,,,
308,30633,,,,,
307,30645,,,,,
306,30656,,,,,
308,30668,,,,,
314,30680,,,,,
312,30691,,,,,
316,30702,,,,,
318,30713,,,,,
317,30725,,,,,
315,30737,,,,,
315,30748,,,,,
319,30759,,,,,
321,30771,,,,,
320,30782,,,,,
325,30793,,,,,
336,30806,,,,,
337,30817,,,,,
330,30828,,,,,
320,30839,,,,,
314,30851,,,,,
316,30863,,,,,
315,30874,,,,,
315,30885,,,,,
315,30897,,,,,
287,30908,,,,,
343,30919,,,,,
646,30931,,,,,
608,30943,,,,,
256,30954,,,,,
257,30965,,,,,
304,30977,,,,,
311,30988,,,,,
317,31000,,,,,
318,31011,,,,,
326,31023,,,,,
329,31034,,,,,
335,31045,,,,,
343,31056,,,,,
348,31069,,,,,
358,31080,,,,,
365,31091,,,,,
375,31102,,,,,
379,31114,,,,,
384,31125,,,,,
383,31137,,,,,
375,31149,,,,,
364,31160,,,,,
342,31171,,,,,
326,31182,,,,,
313,31195,,,,,
304,31206,,,,,
303,31217,,,,,
303,31228,,,,,
305,31240,,,,,
305,31251,,,,,
310,31263,,,,,
312,31275,,,,,
313,31286,,,,,
317,31297,,,,,
317,31308,,,,,
320,31320,,,,,
320,31332,,,,,
325,31343,,,,,
320,31354,,,,,
329,31366,,,,,
337,31377,,,,,
334,31388,,,,,
331,31400,,,,,
321,31412,,,,,
314,31423,,,,,
316,31434,,,,,
316,31446,,,,,
315,31457,,,,,
315,31469,,,,,
289,31480,,,,,
381,31492,,,,,
660,31503,,,,,
520,31514,,,,,
237,31525,,,,,
267,31538,,,,,
306,31549,,,,,
314,31560,,,,,
319,31571,,,,,
325,31583,,,,,
329,31595,,,,,
336,31606,,,,,
338,31618,,,,,
344,31629,,,,,
351,31640,,,,,
358,31651,,,,,
369,31664,,,,,
378,31675,,,,,
385,31686,,,,,
388,31697,,,,,
386,31709,,,,,
377,31720,,,,,
359,31732,,,,,
343,31744,,,,,
323,31755,,,,,
314,31766,,,,,
309,31777,,,,,
306,31789,,,,,
307,31801,,,,,
305,31812,,,,,
310,31823,,,,,
312,31835,,,,,
313,31846,,,,,
317,31857,,,,,
319,31869,,,,,
322,31881,,,,,
320,31892,,,,,
325,31903,,,,,
323,31915,,,,,
321,31927,,,,,
333,31938,,,,,
338,31949,,,,,
336,31961,,,,,
327,31972,,,,,
321,31983,,,,,
318,31995,,,,,
318,32007,,,,,
319,32018,,,,,
318,32029,,,,,
318,32040,,,,,
285,32052,,,,,
426,32064,,,,,
660,32075,,,,,
462,32087,,,,,
247,32098,,,,,
281,32109,,,,,
312,32120,,,,,
313,32133,,,,,
319,32144,,,,,
322,32155,,,,,
329,32166,,,,,
334,32178,,,,,
340,32189,,,,,
346,32201,,,,,
351,32212,,,,,
361,32224,,,,,
368,32235,,,,,
381,32246,,,,,
386,32258,,,,,
387,32270,,,,,
384,32281,,,,,
374,32292,,,,,
358,32304,,,,,
336,32315,,,,,
323,32327,,,,,
314,32338,,,,,
308,32350,,,,,
308,32361,,,,,
307,32372,,,,,
311,32384,,,,,
309,32396,,,,,
312,32407,,,,,
314,32418,,,,,
316,32430,,,,,
321,32441,,,,,
319,32452,,,,,
322,32464,,,,,
320,32476,,,,,
324,32487,,,,,
323,32498,,,,,
324,32509,,,,,
322,32521,,,,,
331,32533,,,,,
339,32544,,,,,
337,32556,,,,,
330,32567,,,,,
321,32578,,,,,
317,32589,,,,,
321,32602,,,,,
320,32613,,,,,
319,32624,,,,,
315,32635,,,,,
288,32647,,,,,
429,32659,,,,,
660,32670,,,,,
459,32681,,,,,
244,32693,,,,,
281,32704,,,,,
310,32715,,,,,
314,32728,,,,,
319,32739,,,,,
325,32750,,,,,
332,32761,,,,,
334,32773,,,,,
341,32784,,,,,
345,32796,,,,,
353,32807,,,,,
360,32819,,,,,
369,32830,,,,,
380,32841,,,,,
383,32852,,,,,
386,32865,,,,,
383,32876,,,,,
376,32887,,,,,
360,32899,,,,,
340,32910,,,,,
325,32921,,,,,
313,32933,,,,,
307,32945,,,,,
307,32956,,,,,
308,32967,,,,,
310,32978,,,,,
311,32990,,,,,
313,33002,,,,,
313,33013,,,,,
316,33025,,,,,
316,33036,,,,,
318,33047,,,,,
318,33059,,,,,
317,33071,,,,,
320,33082,,,,,
320,33093,,,,,
323,33104,,,,,
323,33116,,,,,
320,33128,,,,,
330,33139,,,,,
338,33150,,,,,
337,33162,,,,,
329,33173,,,,,
320,33184,,,,,
316,33197,,,,,
317,33208,,,,,
317,33219,,,,,
319,33230,,,,,
319,33242,,,,,
289,33253,,,,,
403,33265,,,,,
660,33276,,,,,
480,33288,,,,,
236,33299,,,,,
272,33310,,,,,
310,33321,,,,,
313,33334,,,,,
320,33345,,,,,
324,33356,,,,,
328,33368,,,,,
333,33379,,,,,
337,33391,,,,,
346,33402,,,,,
350,33414,,,,,
361,33425,,,,,
370,33436,,,,,
379,33447,,,,,
387,33460,,,,,
388,33471,,,,,
385,33482,,,,,
377,33494,,,,,
364,33505,,,,,
344,33516,,,,,
327,33528,,,,,
316,33540,,,,,
309,33551,,,,,
307,33562,,,,,
306,33573,,,,,
310,33585,,,,,
311,33597,,,,,
311,33608,,,,,
314,33619,,,,,
316,33631,,,,,
319,33642,,,,,
317,33653,,,,,
321,33666,,,,,
320,33677,,,,,
318,33688,,,,,
321,33699,,,,,
318,33711,,,,,
321,33722,,,,,
320,33734,,,,,
321,33745,,,,,
333,33757,,,,,
338,33768,,,,,
334,33779,,,,,
326,33792,,,,,
319,33803,,,,,
316,33814,,,,,
319,33825,,,,,
317,33837,,,,,
319,33848,,,,,
312,33860,,,,,
299,33871,,,,,
494,33883,,,,,
659,33894,,,,,
354,33905,,,,,
241,33916,,,,,
287,33929,,,,,
311,33940,,,,,
315,33951,,,,,
324,33963,,,,,
327,33974,,,,,
333,33985,,,,,
334,33997,,,,,
342,34009,,,,,
350,34020,,,,,
355,34031,,,,,
367,34042,,,,,
374,34054,,,,,
383,34066,,,,,
385,34077,,,,,
389,34088,,,,,
387,34100,,,,,
379,34111,,,,,
362,34123,,,,,
342,34135,,,,,
326,34146,,,,,
312,34157,,,,,
310,34168,,,,,
308,34180,,,,,
305,34192,,,,,
309,34203,,,,,
310,34214,,,,,
314,34226,,,,,
314,34237,,,,,
317,34248,,,,,
319,34260,,,,,
318,34272,,,,,
320,34283,,,,,
321,34294,,,,,
323,34306,,,,,
322,34317,,,,,
321,34329,,,,,
321,34340,,,,,
333,34352,,,,,
336,34363,,,,,
331,34374,,,,,
323,34385,,,,,
316,34398,,,,,
313,34409,,,,,
315,34420,,,,,
316,34432,,,,,
319,34443,,,,,
307,34454,,,,,
307,34466,,,,,
538,34478,,,,,
650,34489,,,,,
288,34500,,,,,
231,34511,,,,,
289,34524,,,,,
311,34535,,,,,
319,34546,,,,,
325,34557,,,,,
326,34569,,,,,
334,34580,,,,,
337,34592,,,,,
345,34604,,,,,
349,34615,,,,,
358,34626,,,,,
367,34637,,,,,
377,34649,,,,,
387,34661,,,,,
389,34672,,,,,
392,34683,,,,,
386,34695,,,,,
376,34706,,,,,
356,34717,,,,,
335,34729,,,,,
320,34741,,,,,
311,34752,,,,,
306,34763,,,,,
303,34775,,,,,
306,34786,,,,,
307,34798,,,,,
308,34809,,,,,
310,34821,,,,,
314,34832,,,,,
317,34843,,,,,
318,34855,,,,,
319,34867,,,,,
319,34878,,,,,
321,34889,,,,,
323,34900,,,,,
323,34912,,,,,
324,34924,,,,,
334,34935,,,,,
337,34947,,,,,
332,34958,,,,,
322,34969,,,,,
317,34980,,,,,
315,34993,,,,,
318,35004,,,,,
316,35015,,,,,
318,35026,,,,,
309,35038,,,,,
300,35049,,,,,
510,35061,,,,,
655,35073,,,,,
327,35084,,,,,
237,35095,,,,,
292,35106,,,,,
311,35118,,,,,
315,35130,,,,,
322,35141,,,,,
326,35152,,,,,
333,35164,,,,,
337,35175,,,,,
345,35186,,,,,
351,35198,,,,,
357,35210,,,,,
364,35221,,,,,
373,35232,,,,,
382,35244,,,,,
385,35256,,,,,
389,35267,,,,,
383,35278,,,,,
372,35290,,,,,
357,35301,,,,,
336,35312,,,,,
321,35324,,,,,
312,35336,,,,,
310,35347,,,,,
309,35358,,,,,
310,35369,,,,,
313,35381,,,,,
313,35393,,,,,
315,35404,,,,,
315,35416,,,,,
319,35427,,,,,
319,35438,,,,,
320,35449,,,,,
323,35462,,,,,
322,35473,,,,,
326,35484,,,,,
321,35495,,,,,
335,35507,,,,,
339,35518,,,,,
337,35530,,,,,
327,35542,,,,,
318,35553,,,,,
317,35564,,,,,
317,35575,,,,,
320,35588,,,,,
317,35599,,,,,
313,35610,,,,,
291,35621,,,,,
443,35633,,,,,
660,35644,,,,,
415,35656,,,,,
237,35667,,,,,
280,35679,,,,,
310,35690,,,,,
315,35701,,,,,
318,35713,,,,,
324,35725,,,,,
327,35736,,,,,
334,35747,,,,,
339,35759,,,,,
345,35770,,,,,
354,35781,,,,,
360,35793,,,,,
372,35805,,,,,
378,35816,,,,,
386,35827,,,,,
385,35838,,,,,
383,35850,,,,,
374,35862,,,,,
357,35873,,,,,
340,35885,,,,,
322,35896,,,,,
312,35907,,,,,
307,35918,,,,,
307,35931,,,,,
308,35942,,,,,
309,35953,,,,,
311,35964,,,,,
311,35976,,,,,
313,35988,,,,,
316,35999,,,,,
317,36011,,,,,
320,36022,,,,,
319,36033,,,,,
323,36044,,,,,
322,36057,,,,,
322,36068,,,,,
332,36079,,,,,
336,36090,,,,,
334,36102,,,,,
326,36113,,,,,
319,36125,,,,,
315,36136,,,,,
315,36148,,,,,
315,36159,,,,,
316,36170,,,,,
313,36182,,,,,
285,36194,,,,,
445,36205,,,,,
660,36216,,,,,
408,36228,,,,,
235,36239,,,,,
277,36250,,,,,
309,36262,,,,,
311,36274,,,,,
319,36285,,,,,
323,36296,,,,,
328,36307,,,,,
333,36320,,,,,
339,36331,,,,,
346,36342,,,,,
351,36354,,,,,
363,36365,,,,,
369,36376,,,,,
378,36388,,,,,
381,36400,,,,,
384,36411,,,,,
384,36422,,,,,
373,36433,,,,,
360,36445,,,,,
339,36457,,,,,
324,36468,,,,,
313,36480,,,,,
308,36491,,,,,
309,36502,,,,,
309,36513,,,,,
312,36526,,,,,
311,36537,,,,,
313,36548,,,,,
313,36559,,,,,
315,36571,,,,,
317,36582,,,,,
319,36594,,,,,
323,36605,,,,,
321,36617,,,,,
326,36628,,,,,
335,36639,,,,,
337,36651,,,,,
336,36663,,,,,
324,36674,,,,,
319,36685,,,,,
315,36697,,,,,
320,36708,,,,,
318,36720,,,,,
316,36731,,,,,
308,36743,,,,,
293,36754,,,,,
515,36765,,,,,
657,36776,,,,,
310,36789,,,,,
230,36800,,,,,
290,36811,,,,,
314,36823,,,,,
316,36834,,,,,
324,36845,,,,,
326,36857,,,,,
335,36869,,,,,
340,36880,,,,,
346,36891,,,,,
352,36902,,,,,
356,36914,,,,,
368,36926,,,,,
376,36937,,,,,
383,36948,,,,,
389,36960,,,,,
389,36971,,,,,
384,36982,,,,,
373,36995,,,,,
361,37006,,,,,
336,37017,,,,,
322,37028,,,,,
313,37040,,,,,
309,37052,,,,,
309,37063,,,,,
307,37074,,,,,
311,37086,,,,,
312,37097,,,,,
315,37108,,,,,
318,37121,,,,,
320,37132,,,,,
323,37143,,,,,
326,37154,,,,,
327,37166,,,,,
332,37177,,,,,
341,37189,,,,,
338,37200,,,,,
333,37212,,,,,
322,37223,,,,,
313,37234,,,,,
317,37245,,,,,
315,37258,,,,,
316,37269,,,,,
316,37280,,,,,
289,37292,,,,,
341,37303,,,,,
622,37314,,,,,
543,37326,,,,,
227,37338,,,,,
253,37349,,,,,
305,37360,,,,,
312,37371,,,,,
317,37383,,,,,
321,37395,,,,,
328,37406,,,,,
333,37417,,,,,
337,37429,,,,,
344,37440,,,,,
350,37452,,,,,
359,37464,,,,,
368,37475,,,,,
377,37486,,,,,
381,37497,,,,,
385,37509,,,,,
385,37521,,,,,
378,37532,,,,,
364,37543,,,,,
343,37555,,,,,
328,37566,,,,,
316,37577,,,,,
310,37590,,,,,
308,37601,,,,,
308,37612,,,,,
309,37623,,,,,
310,37635,,,,,
314,37646,,,,,
314,37658,,,,,
318,37669,,,,,
319,37681,,,,,
322,37692,,,,,
325,37703,,,,,
333,37714,,,,,
339,37727,,,,,
335,37738,,,,,
331,37749,,,,,
321,37761,,,,,
314,37772,,,,,
315,37784,,,,,
315,37795,,,,,
316,37807,,,,,
314,37818,,,,,
277,37829,,,,,
372,37840,,,,,
657,37853,,,,,
493,37864,,,,,
235,37875,,,,,
272,37886,,,,,
307,37898,,,,,
313,37909,,,,,
319,37921,,,,,
321,37933,,,,,
329,37944,,,,,
333,37955,,,,,
340,37966,,,,,
345,37978,,,,,
353,37990,,,,,
358,38001,,,,,
368,38012,,,,,
379,38024,,,,,
380,38035,,,,,
384,38046,,,,,
380,38059,,,,,
373,38070,,,,,
358,38081,,,,,
340,38092,,,,,
326,38104,,,,,
314,38115,,,,,
309,38127,,,,,
307,38138,,,,,
308,38150,,,,,
308,38161,,,,,
309,38172,,,,,
313,38184,,,,,
314,38196,,,,,
318,38207,,,,,
319,38218,,,,,
324,38230,,,,,
322,38241,,,,,
329,38253,,,,,
337,38264,,,,,
335,38276,,,,,
331,38287,,,,,
319,38298,,,,,
316,38309,,,,,
313,38322,,,,,
314,38333,,,,,
316,38344,,,,,
314,38355,,,,,
288,38367,,,,,
335,38378,,,,,
624,38390,,,,,
572,38402,,,,,
247,38413,,,,,
262,38424,,,,,
303,38435,,,,,
312,38447,,,,,
316,38459,,,,,
323,38470,,,,,
328,38481,,,,,
331,38493,,,,,
340,38504,,,,,
344,38516,,,,,
350,38528,,,,,
358,38539,,,,,
368,38550,,,,,
374,38561,,,,,
380,38573,,,,,
385,38585,,,,,
382,38596,,,,,
376,38607,,,,,
360,38619,,,,,
344,38630,,,,,
329,38641,,,,,
313,38653,,,,,
310,38665,,,,,
308,38676,,,,,
309,38687,,,,,
310,38699,,,,,
312,38710,,,,,
313,38722,,,,,
315,38733,,,,,
317,38745,,,,,
318,38756,,,,,
324,38767,,,,,
322,38778,,,,,
323,38791,,,,,
337,38802,,,,,
338,38813,,,,,
333,38824,,,,,
322,38836,,,,,
316,38847,,,,,
312,38859,,,,,
314,38871,,,,,
315,38882,,,,,
315,38893,,,,,
303,38904,,,,,
283,38917,,,,,
506,38928,,,,,
656,38939,,,,,
320,38950,,,,,
239,38962,,,,,
291,38973,,,,,
310,38985,,,,,
312,38996,,,,,
319,39008,,,,,
324,39019,,,,,
329,39030,,,,,
336,39042,,,,,
341,39054,,,,,
348,39065,,,,,
355,39076,,,,,
366,39088,,,,,
372,39099,,,,,
380,39110,,,,,
384,39122,,,,,
385,39134,,,,,
380,39145,,,,,
370,39156,,,,,
353,39168,,,,,
330,39179,,,,,
317,39191,,,,,
312,39202,,,,,
305,39214,,,,,
308,39225,,,,,
305,39236,,,,,
307,39248,,,,,
307,39260,,,,,
311,39271,,,,,
313,39282,,,,,
315,39293,,,,,
319,39305,,,,,
320,39317,,,,,
323,39328,,,,,
325,39340,,,,,
336,39351,,,,,
337,39362,,,,,
329,39373,,,,,
321,39386,,,,,
316,39397,,,,,
316,39408,,,,,
316,39419,,,,,
314,39431,,,,,
315,39442,,,,,
295,39454,,,,,
307,39465,,,,,
571,39477,,,,,
628,39488,,,,,
262,39499,,,,,
241,39511,,,,,
294,39523,,,,,
310,39534,,,,,
315,39545,,,,,
320,39557,,,,,
326,39568,,,,,
330,39579,,,,,
337,39591,,,,,
343,39603,,,,,
349,39614,,,,,
358,39625,,,,,
366,39636,,,,,
377,39649,,,,,
384,39660,,,,,
387,39671,,,,,
387,39683,,,,,
379,39694,,,,,
368,39705,,,,,
349,39717,,,,,
331,39729,,,,,
314,39740,,,,,
307,39751,,,,,
307,39762,,,,,
304,39774,,,,,
307,39786,,,,,
305,39797,,,,,
308,39809,,,,,
309,39820,,,,,
315,39831,,,,,
317,39842,,,,,
319,39855,,,,,
324,39866,,,,,
321,39877,,,,,
328,39888,,,,,
336,39900,,,,,
338,39911,,,,,
335,39923,,,,,
320,39934,,,,,
316,39946,,,,,
314,39957,,,,,
316,39968,,,,,
316,39981,,,,,
317,39992,,,,,
298,40003,,,,,
307,40014,,,,,
559,40026,,,,,
638,40037,,,,,
290,40049,,,,,
248,40060,,,,,
299,40072,,,,,
311,40083,,,,,
314,40094,,,,,
322,40105,,,,,
325,40118,,,,,
330,40129,,,,,
336,40140,,,,,
341,40152,,,,,
347,40163,,,,,
355,40174,,,,,
365,40186,,,,,
373,40198,,,,,
381,40209,,,,,
386,40220,,,,,
384,40231,,,,,
379,40243,,,,,
365,40255,,,,,
348,40266,,,,,
329,40278,,,,,
317,40289,,,,,
308,40300,,,,,
307,40311,,,,,
307,40324,,,,,
308,40335,,,,,
310,40346,,,,,
309,40357,,,,,
314,40369,,,,,
316,40381,,,,,
316,40392,,,,,
317,40403,,,,,
317,40415,,,,,
323,40426,,,,,
324,40437,,,,,
319,40450,,,,,
331,40461,,,,,
341,40472,,,,,
335,40483,,,,,
325,40495,,,,,
320,40506,,,,,
315,40518,,,,,
317,40529,,,,,
315,40541,,,,,
318,40552,,,,,
315,40563,,,,,
283,40574,,,,,
420,40587,,,,,
660,40598,,,,,
469,40609,,,,,
243,40621,,,,,
279,40632,,,,,
310,40643,,,,,
311,40655,,,,,
317,40667,,,,,
320,40678,,,,,
329,40689,,,,,
330,40700,,,,,
336,40713,,,,,
345,40724,,,,,
351,40735,,,,,
360,40747,,,,,
369,40758,,,,,
379,40769,,,,,
383,40781,,,,,
385,40793,,,,,
384,40804,,,,,
375,40815,,,,,
359,40826,,,,,
338,40838,,,,,
323,40850,,,,,
311,40861,,,,,
307,40872,,,,,
307,40884,,,,,
305,40895,,,,,
309,40906,,,,,
309,40919,,,,,
313,40930,,,,,
313,40941,,,,,
316,40952,,,,,
320,40964,,,,,
319,40975,,,,,
320,40987,,,,,
318,40998,,,,,
322,41010,,,,,
319,41021,,,,,
321,41032,,,,,
323,41043,,,,,
320,41056,,,,,
336,41067,,,,,
339,41078,,,,,
335,41090,,,,,
324,41101,,,,,
317,41113,,,,,
318,41124,,,,,
315,41136,,,,,
321,41147,,,,,
320,41158,,,,,
312,41169,,,,,
296,41182,,,,,
494,41193,,,,,
660,41204,,,,,
362,41216,,,,,
241,41227,,,,,
288,41238,,,,,
311,41250,,,,,
312,41262,,,,,
319,41273,,,,,
325,41284,,,,,
331,41295,,,,,
338,41307,,,,,
340,41319,,,,,
348,41330,,,,,
355,41341,,,,,
364,41353,,,,,
375,41364,,,,,
382,41375,,,,,
388,41388,,,,,
390,41399,,,,,
388,41410,,,,,
378,41421,,,,,
361,41433,,,,,
338,41445,,,,,
319,41456,,,,,
311,41467,,,,,
305,41479,,,,,
304,41490,,,,,
304,41501,,,,,
307,41513,,,,,
308,41525,,,,,
308,41536,,,,,
312,41547,,,,,
314,41559,,,,,
316,41570,,,,,
318,41582,,,,,
317,41593,,,,,
320,41605,,,,,
319,41616,,,,,
319,41627,,,,,
319,41638,,,,,
323,41651,,,,,
318,41662,,,,,
325,41673,,,,,
337,41684,,,,,
338,41696,,,,,
335,41707,,,,,
322,41719,,,,,
319,41731,,,,,
318,41742,,,,,
318,41753,,,,,
321,41764,,,,,
319,41776,,,,,
296,41788,,,,,
351,41799,,,,,
628,41810,,,,,
573,41822,,,,,
250,41833,,,,,
259,41845,,,,,
299,41857,,,,,
308,41868,,,,,
313,41879,,,,,
320,41890,,,,,
327,41902,,,,,
332,41914,,,,,
338,41925,,,,,
341,41936,,,,,
348,41948,,,,,
354,41959,,,,,
366,41970,,,,,
375,41982,,,,,
385,41994,,,,,
388,42005,,,,,
386,42016,,,,,
382,42028,,,,,
368,42039,,,,,
350,42051,,,,,
331,42062,,,,,
316,42074,,,,,
310,42085,,,,,
306,42096,,,,,
307,42107,,,,,
307,42120,,,,,
313,42131,,,,,
311,42142,,,,,
313,42153,,,,,
316,42165,,,,,
315,42177,,,,,
318,42188,,,,,
319,42200,,,,,
320,42211,,,,,
319,42222,,,,,
321,42233,,,,,
323,42246,,,,,
323,42257,,,,,
323,42268,,,,,
320,42279,,,,,
337,42291,,,,,
339,42302,,,,,
333,42314,,,,,
326,42326,,,,,
318,42337,,,,,
319,42348,,,,,
318,42359,,,,,
319,42371,,,,,
320,42383,,,,,
302,42394,,,,,
324,42405,,,,,
569,42417,,,,,
642,42428,,,,,
300,42439,,,,,
262,42451,,,,,
300,42463,,,,,
309,42474,,,,,
314,42485,,,,,
319,42497,,,,,
327,42508,,,,,
331,42520,,,,,
338,42531,,,,,
345,42543,,,,,
350,42554,,,,,
355,42565,,,,,
364,42577,,,,,
378,42589,,,,,
385,42600,,,,,
391,42611,,,,,
389,42622,,,,,
385,42634,,,,,
375,42646,,,,,
355,42657,,,,,
335,42669,,,,,
318,42680,,,,,
311,42691,,,,,
309,42702,,,,,
306,42715,,,,,
308,42726,,,,,
308,42737,,,,,
310,42748,,,,,
311,42760,,,,,
316,42771,,,,,
317,42783,,,,,
318,42795,,,,,
320,42806,,,,,
319,42817,,,,,
320,42828,,,,,
317,42840,,,,,
321,42852,,,,,
322,42863,,,,,
324,42874,,,,,
321,42886,,,,,
331,42897,,,,,
338,42909,,,,,
336,42920,,,,,
330,42932,,,,,
323,42943,,,,,
316,42954,,,,,
320,42966,,,,,
319,42978,,,,,
321,42989,,,,,
317,43000,,,,,
291,43012,,,,,
427,43023,,,,,
660,43034,,,,,
454,43046,,,,,
229,43058,,,,,
272,43069,,,,,
307,43080,,,,,
315,43091,,,,,
320,43103,,,,,
323,43115,,,,,
328,43126,,,,,
335,43138,,,,,
343,43149,,,,,
347,43160,,,,,
356,43171,,,,,
362,43184,,,,,
369,43195,,,,,
380,43206,,,,,
388,43217,,,,,
395,43229,,,,,
390,43240,,,,,
383,43252,,,,,
367,43264,,,,,
345,43275,,,,,
326,43286,,,,,
311,43297,,,,,
305,43310,,,,,
300,43321,,,,,
304,43332,,,,,
304,43343,,,,,
305,43355,,,,,
308,43366,,,,,
307,43378,,,,,
312,43389,,,,,
313,43401,,,,,
315,43412,,,,,
318,43423,,,,,
319,43435,,,,,
322,43447,,,,,
319,43458,,,,,
321,43469,,,,,
319,43481,,,,,
329,43492,,,,,
335,43503,,,,,
332,43515,,,,,
323,43527,,,,,
317,43538,,,,,
316,43549,,,,,
313,43560,,,,,
316,43572,,,,,
318,43584,,,,,
310,43595,,,,,
293,43607,,,,,
473,43618,,,,,
660,43629,,,,,
365,43641,,,,,
227,43653,,,,,
278,43664,,,,,
310,43675,,,,,
317,43686,,,,,
320,43698,,,,,
326,43710,,,,,
332,43721,,,,,
336,43732,,,,,
343,43744,,,,,
349,43755,,,,,
358,43766,,,,,
367,43779,,,,,
378,43790,,,,,
387,43801,,,,,
394,43812,,,,,
395,43824,,,,,
392,43835,,,,,
383,43847,,,,,
365,43858,,,,,
350,43870,,,,,
328,43881,,,,,
318,43892,,,,,
314,43904,,,,,
312,43916,,,,,
314,43927,,,,,
315,43938,,,,,
319,43950,,,,,
315,43961,,,,,
321,43972,,,,,
323,43984,,,,,
325,43996,,,,,
331,44007,,,,,
329,44018,,,,,
333,44029,,,,,
335,44042,,,,,
337,44053,,,,,
332,44064,,,,,
340,44076,,,,,
350,44087,,,,,
348,44098,,,,,
345,44110,,,,,
331,44122,,,,,
330,44133,,,,,
331,44144,,,,,
330,44155,,,,,
333,44167,,,,,
334,44179,,,,,
309,44190,,,,,
389,44201,,,,,
660,44213,,,,,
561,44224,,,,,
245,44235,,,,,
276,44248,,,,,
319,44259,,,,,
329,44270,,,,,
333,44281,,,,,
340,44293,,,,,
345,44304,,,,,
350,44316,,,,,
357,44327,,,,,
362,44339,,,,,
370,44350,,,,,
374,44361,,,,,
386,44374,,,,,
396,44385,,,,,
403,44396,,,,,
411,44407,,,,,
407,44419,,,,,
400,44430,,,,,
383,44442,,,,,
363,44453,,,,,
343,44465,,,,,
331,44476,,,,,
325,44487,,,,,
323,44498,,,,,
325,44511,,,,,
321,44522,,,,,
321,44533,,,,,
323,44545,,,,,
326,44556,,,,,
330,44567,,,,,
330,44579,,,,,
337,44591,,,,,
335,44602,,,,,
335,44613,,,,,
338,44624,,,,,
335,44636,,,,,
342,44648,,,,,
347,44659,,,,,
350,44670,,,,,
343,44682,,,,,
334,44693,,,,,
329,44704,,,,,
327,44717,,,,,
328,44728,,,,,
327,44739,,,,,
330,44750,,,,,
308,44762,,,,,
350,44774,,,,,
623,44785,,,,,
603,44796,,,,,
254,44808,,,,,
259,44819,,,,,
310,44830,,,,,
324,44843,,,,,
333,44854,,,,,
343,44865,,,,,
348,44876,,,,,
352,44888,,,,,
354,44899,,,,,
361,44911,,,,,
367,44922,,,,,
373,44934,,,,,
380,44945,,,,,
386,44956,,,,,
398,44967,,,,,
399,44980,,,,,
397,44991,,,,,
390,45002,,,,,
375,45014,,,,,
357,45025,,,,,
334,45036,,,,,
319,45048,,,,,
312,45060,,,,,
310,45071,,,,,
307,45082,,,,,
304,45093,,,,,
307,45106,,,,,
309,45117,,,,,
313,45128,,,,,
311,45139,,,,,
312,45151,,,,,
311,45162,,,,,
314,45174,,,,,
319,45186,,,,,
320,45197,,,,,
323,45208,,,,,
324,45219,,,,,
330,45231,,,,,
324,45243,,,,,
315,45254,,,,,
311,45265,,,,,
305,45277,,,,,
306,45288,,,,,
307,45299,,,,,
306,45312,,,,,
302,45323,,,,,
277,45334,,,,,
433,45345,,,,,
656,45357,,,,,
381,45368,,,,,
216,45380,,,,,
268,45391,,,,,
297,45403,,,,,
297,45414,,,,,
305,45425,,,,,
308,45436,,,,,
316,45449,,,,,
318,45460,,,,,
326,45471,,,,,
330,45483,,,,,
336,45494,,,,,
346,45506,,,,,
355,45517,,,,,
367,45529,,,,,
369,45540,,,,,
373,45551,,,,,
368,45562,,,,,
360,45575,,,,,
345,45586,,,,,
324,45597,,,,,
309,45608,,,,,
297,45620,,,,,
294,45631,,,,,
291,45643,,,,,
293,45655,,,,,
295,45666,,,,,
294,45677,,,,,
299,45688,,,,,
299,45700,,,,,
304,45712,,,,,
305,45723,,,,,
306,45734,,,,,
309,45746,,,,,
307,45757,,,,,
311,45768,,,,,
319,45780,,,,,
326,45792,,,,,
323,45803,,,,,
317,45814,,,,,
307,45826,,,,,
302,45838,,,,,
304,45849,,,,,
305,45860,,,,,
306,45872,,,,,
305,45883,,,,,
276,45894,,,,,
366,45906,,,,,
640,45918,,,,,
506,45929,,,,,
229,45940,,,,,
261,45952,,,,,
297,45963,,,,,
300,45975,,,,,
308,45986,,,,,
313,45998,,,,,
318,46009,,,,,
323,46020,,,,,
329,46031,,,,,
332,46044,,,,,
340,46055,,,,,
347,46066,,,,,
355,46077,,,,,
367,46089,,,,,
374,46100,,,,,
377,46112,,,,,
374,46124,,,,,
366,46135,,,,,
354,46146,,,,,
336,46157,,,,,
320,46169,,,,,
306,46181,,,,,
303,46192,,,,,
301,46203,,,,,
301,46215,,,,,
302,46226,,,,,
305,46238,,,,,
309,46249,,,,,
305,46261,,,,,
311,46272,,,,,
313,46283,,,,,
313,46295,,,,,
315,46307,,,,,
316,46318,,,,,
317,46329,,,,,
324,46341,,,,,
333,46352,,,,,
336,46363,,,,,
329,46375,,,,,
320,46387,,,,,
313,46398,,,,,
312,46409,,,,,
313,46420,,,,,
314,46432,,,,,
315,46444,,,,,
297,46455,,,,,
322,46467,,,,,
589,46478,,,,,
627,46489,,,,,
270,46500,,,,,
254,46513,,,,,
302,46524,,,,,
309,46535,,,,,
315,46546,,,,,
321,46558,,,,,
327,46570,,,,,
331,46581,,,,,
336,46593,,,,,
344,46604,,,,,
351,46615,,,,,
356,46626,,,,,
366,46639,,,,,
376,46650,,,,,
382,46661,,,,,
386,46672,,,,,
388,46684,,,,,
382,46695,,,,,
369,46707,,,,,
350,46718,,,,,
335,46730,,,,,
320,46741,,,,,
311,46752,,,,,
308,46764,,,,,
309,46776,,,,,
310,46787,,,,,
310,46798,,,,,
312,46810,,,,,
314,46821,,,,,
317,46832,,,,,
320,46844,,,,,
321,46856,,,,,
323,46867,,,,,
323,46878,,,,,
325,46889,,,,,
328,46901,,,,,
337,46913,,,,,
338,46924,,,,,
332,46936,,,,,
322,46947,,,,,
318,46958,,,,,
317,46970,,,,,
317,46982,,,,,
317,46993,,,,,
318,47004,,,,,
300,47015,,,,,
316,47027,,,,,
571,47039,,,,,
632,47050,,,,,
268,47062,,,,,
244,47073,,,,,
295,47084,,,,,
312,47095,,,,,
318,47108,,,,,
321,47119,,,,,
329,47130,,,,,
332,47141,,,,,
336,47153,,,,,
340,47164,,,,,
346,47176,,,,,
357,47187,,,,,
364,47199,,,,,
376,47210,,,,,
382,47221,,,,,
386,47233,,,,,
387,47245,,,,,
379,47256,,,,,
370,47267,,,,,
351,47279,,,,,
331,47290,,,,,
317,47302,,,,,
309,47313,,,,,
306,47325,,,,,
304,47336,,,,,
305,47347,,,,,
306,47358,,,,,
309,47371,,,,,
311,47382,,,,,
315,47393,,,,,
316,47405,,,,,
318,47416,,,,,
321,47427,,,,,
321,47439,,,,,
323,47451,,,,,
328,47462,,,,,
333,47473,,,,,
338,47484,,,,,
327,47496,,,,,
320,47508,,,,,
314,47519,,,,,
316,47531,,,,,
314,47542,,,,,
316,47553,,,,,
316,47564,,,,,
292,47577,,,,,
334,47588,,,,,
606,47599,,,,,
580,47610,,,,,
242,47622,,,,,
250,47633,,,,,
297,47645,,,,,
308,47656,,,,,
313,47668,,,,,
317,47679,,,,,
325,47690,,,,,
327,47703,,,,,
333,47714,,,,,
338,47725,,,,,
342,47736,,,,,
355,47748,,,,,
362,47759,,,,,
370,47771,,,,,
377,47782,,,,,
383,47794,,,,,
381,47805,,,,,
373,47816,,,,,
363,47827,,,,,
343,47840,,,,,
328,47851,,,,,
315,47862,,,,,
309,47874,,,,,
308,47885,,,,,
305,47896,,,,,
308,47908,,,,,
307,47920,,,,,
312,47931,,,,,
314,47942,,,,,
315,47953,,,,,
320,47965,,,,,
318,47977,,,,,
324,47988,,,,,
323,48000,,,,,
325,48011,,,,,
331,48022,,,,,
337,48034,,,,,
339,48046,,,,,
331,48057,,,,,
323,48068,,,,,
317,48079,,,,,
318,48091,,,,,
317,48103,,,,,
319,48114,,,,,
320,48125,,,,,
300,48137,,,,,
339,48148,,,,,
590,48159,,,,,
592,48172,,,,,
266,48183,,,,,
263,48194,,,,,
308,48205,,,,,
314,48217,,,,,
319,48228,,,,,
321,48240,,,,,
326,48251,,,,,
330,48263,,,,,
334,48274,,,,,
340,48285,,,,,
344,48296,,,,,
353,48309,,,,,
358,48320,,,,,
369,48331,,,,,
374,48343,,,,,
378,48354,,,,,
378,48365,,,,,
369,48377,,,,,
361,48389,,,,,
342,48400,,,,,
327,48411,,,,,
316,48422,,,,,
309,48435,,,,,
308,48446,,,,,
306,48457,,,,,
310,48468,,,,,
312,48480,,,,,
315,48491,,,,,
316,48503,,,,,
318,48515,,,,,
319,48526,,,,,
319,48537,,,,,
323,48548,,,,,
319,48560,,,,,
326,48572,,,,,
336,48583,,,,,
337,48594,,,,,
332,48606,,,,,
322,48617,,,,,
317,48628,,,,,
314,48641,,,,,
316,48652,,,,,
315,48663,,,,,
315,48674,,,,,
304,48686,,,,,
291,48697,,,,,
512,48709,,,,,
655,48720,,,,,
333,48732,,,,,
246,48743,,,,,
298,48754,,,,,
311,48766,,,,,
313,48778,,,,,
321,48789,,,,,
323,48800,,,,,
328,48812,,,,,
333,48823,,,,,
338,48835,,,,,
345,48846,,,,,
351,48858,,,,,
359,48869,,,,,
366,48880,,,,,
377,48891,,,,,
377,48904,,,,,
378,48915,,,,,
372,48926,,,,,
361,48937,,,,,
348,48949,,,,,
329,48960,,,,,
319,48972,,,,,
311,48984,,,,,
306,48995,,,,,
307,49006,,,,,
307,49017,,,,,
310,49029,,,,,
311,49041,,,,,
315,49052,,,,,
314,49063,,,,,
316,49075,,,,,
320,49086,,,,,
318,49097,,,,,
322,49110,,,,,
322,49121,,,,,
320,49132,,,,,
329,49143,,,,,
338,49155,,,,,
338,49167,,,,,
330,49178,,,,,
319,49189,,,,,
315,49201,,,,,
314,49212,,,,,
316,49223,,,,,
315,49235,,,,,
317,49247,,,,,
293,49258,,,,,
342,49269,,,,,
613,49281,,,,,
576,49292,,,,,
252,49304,,,,,
257,49315,,,,,
303,49327,,,,,
310,49338,,,,,
316,49349,,,,,
319,49360,,,,,
326,49373,,,,,
331,49384,,,,,
334,49395,,,,,
341,49406,,,,,
346,49418,,,,,
354,49429,,,,,
361,49441,,,,,
371,49453,,,,,
377,49464,,,,,
378,49475,,,,,
378,49486,,,,,
372,49499,,,,,
362,49510,,,,,
344,49521,,,,,
327,49532,,,,,
317,49544,,,,,
309,49555,,,,,
308,49567,,,,,
308,49579,,,,,
312,49590,,,,,
310,49601,,,,,
313,49612,,,,,
316,49624,,,,,
318,49636,,,,,
317,49647,,,,,
317,49658,,,,,
320,49670,,,,,
320,49681,,,,,
325,49692,,,,,
319,49704,,,,,
329,49716,,,,,
339,49727,,,,,
336,49738,,,,,
328,49750,,,,,
316,49761,,,,,
317,49773,,,,,
317,49784,,,,,
316,49796,,,,,
315,49807,,,,,
317,49818,,,,,
289,49829,,,,,
377,49842,,,,,
658,49853,,,,,
516,49864,,,,,
241,49875,,,,,
270,49887,,,,,
306,49899,,,,,
315,49910,,,,,
318,49922,,,,,
321,49933,,,,,
328,49944,,,,,
332,49955,,,,,
337,49968,,,,,
341,49979,,,,,
350,49990,,,,,
356,50001,,,,,
364,50013,,,,,
372,50024,,,,,
377,50036,,,,,
380,50048,,,,,
377,50059,,,,,
373,50070,,,,,
359,50081,,,,,
343,50093,,,,,
327,50105,,,,,
316,50116,,,,,
312,50127,,,,,
306,50139,,,,,
309,50150,,,,,
307,50161,,,,,
313,50173,,,,,
314,50185,,,,,
315,50196,,,,,
315,50207,,,,,
315,50219,,,,,
319,50231,,,,,
321,50242,,,,,
325,50253,,,,,
323,50265,,,,,
329,50276,,,,,
338,50287,,,,,
336,50299,,,,,
325,50311,,,,,
314,50322,,,,,
313,50333,,,,,
315,50344,,,,,
316,50356,,,,,
319,50368,,,,,
316,50379,,,,,
291,50391,,,,,
384,50402,,,,,
659,50413,,,,,
502,50424,,,,,
216,50437,,,,,
260,50448,,,,,
303,50459,,,,,
315,50470,,,,,
318,50482,,,,,
323,50493,,,,,
329,50505,,,,,
331,50516,,,,,
338,50528,,,,,
342,50539,,,,,
351,50550,,,,,
359,50562,,,,,
368,50574,,,,,
377,50585,,,,,
381,50596,,,,,
382,50608,,,,,
377,50619,,,,,
373,50631,,,,,
360,50642,,,,,
344,50654,,,,,
327,50665,,,,,
312,50676,,,,,
309,50688,,,,,
304,50700,,,,,
304,50711,,,,,
303,50722,,,,,
303,50734,,,,,
306,50745,,,,,
309,50756,,,,,
314,50768,,,,,
315,50780,,,,,
319,50791,,,,,
320,50802,,,,,
323,50813,,,,,
324,50825,,,,,
329,50837,,,,,
336,50848,,,,,
329,50860,,,,,
322,50871,,,,,
315,50882,,,,,
315,50893,,,,,
313,50906,,,,,
312,50917,,,,,
317,50928,,,,,
304,50939,,,,,
293,50951,,,,,
502,50963,,,,,
656,50974,,,,,
319,50985,,,,,
227,50997,,,,,
286,51008,,,,,
307,51019,,,,,
314,51032,,,,,
317,51043,,,,,
325,51054,,,,,
329,51065,,,,,
330,51077,,,,,
339,51088,,,,,
345,51100,,,,,
353,51111,,,,,
358,51123,,,,,
367,51134,,,,,
377,51145,,,,,
381,51156,,,,,
381,51169,,,,,
373,51180,,,,,
367,51191,,,,,
351,51203,,,,,
335,51214,,,,,
322,51225,,,,,
312,51237,,,,,
309,51249,,,,,
308,51260,,,,,
310,51271,,,,,
310,51282,,,,,
310,51294,,,,,
314,51306,,,,,
317,51317,,,,,
321,51329,,,,,
322,51340,,,,,
326,51351,,,,,
323,51363,,,,,
325,51375,,,,,
334,51386,,,,,
337,51397,,,,,
334,51408,,,,,
322,51420,,,,,
317,51432,,,,,
313,51443,,,,,
314,51454,,,,,
315,51466,,,,,
313,51477,,,,,
307,51488,,,,,
285,51501,,,,,
484,51512,,,,,
658,51523,,,,,
341,51534,,,,,
230,51546,,,,,
283,51557,,,,,
311,51569,,,,,
313,51580,,,,,
319,51592,,,,,
326,51603,,,,,
329,51614,,,,,
332,51625,,,,,
338,51638,,,,,
347,51649,,,,,
352,51660,,,,,
361,51672,,,,,
370,51683,,,,,
377,51695,,,,,
383,51706,,,,,
379,51718,,,,,
377,51729,,,,,
367,51740,,,,,
356,51751,,,,,
335,51764,,,,,
320,51775,,,,,
312,51786,,,,,
307,51798,,,,,
309,51809,,,,,
307,51820,,,,,
310,51832,,,,,
310,51844,,,,,
313,51855,,,,,
317,51866,,,,,
319,51877,,,,,
320,51889,,,,,
321,51901,,,,,
325,51912,,,,,
322,51923,,,,,
335,51935,,,,,
339,51946,,,,,
335,51957,,,,,
328,51970,,,,,
315,51981,,,,,
316,51992,,,,,
316,52003,,,,,
315,52015,,,,,
317,52026,,,,,
312,52038,,,,,
283,52049,,,,,
434,52061,,,,,
660,52072,,,,,
417,52083,,,,,
225,52096,,,,,
276,52107,,,,,
308,52118,,,,,
314,52129,,,,,
317,52141,,,,,
323,52152,,,,,
328,52164,,,,,
333,52175,,,,,
338,52187,,,,,
344,52198,,,,,
349,52209,,,,,
357,52220,,,,,
368,52233,,,,,
374,52244,,,,,
378,52255,,,,,
381,52267,,,,,
378,52278,,,,,
371,52289,,,,,
356,52301,,,,,
339,52313,,,,,
322,52324,,,,,
313,52335,,,,,
306,52346,,,,,
306,52358,,,,,
307,52370,,,,,
308,52381,,,,,
311,52392,,,,,
312,52404,,,,,
316,52415,,,,,
316,52427,,,,,
318,52439,,,,,
322,52450,,,,,
321,52461,,,,,
322,52472,,,,,
329,52484,,,,,
336,52496,,,,,
334,52507,,,,,
328,52518,,,,,
317,52530,,,,,
312,52541,,,,,
315,52552,,,,,
313,52564,,,,,
313,52576,,,,,
314,52587,,,,,
285,52598,,,,,
339,52610,,,,,
619,52621,,,,,
567,52633,,,,,
244,52644,,,,,
256,52656,,,,,
303,52667,,,,,
309,52678,,,,,
313,52689,,,,,
319,52702,,,,,
325,52713,,,,,
329,52724,,,,,
334,52736,,,,,
339,52747,,,,,
346,52758,,,,,
353,52770,,,,,
360,52782,,,,,
371,52793,,,,,
376,52804,,,,,
380,52815,,,,,
379,52828,,,,,
371,52839,,,,,
359,52850,,,,,
342,52861,,,,,
329,52873,,,,,
315,52884,,,,,
309,52896,,,,,
309,52908,,,,,
307,52919,,,,,
311,52930,,,,,
311,52941,,,,,
314,52953,,,,,
316,52965,,,,,
318,52976,,,,,
319,52987,,,,,
319,52999,,,,,
322,53010,,,,,
322,53021,,,,,
322,53033,,,,,
329,53045,,,,,
339,53056,,,,,
337,53067,,,,,
331,53079,,,,,
320,53090,,,,,
317,53102,,,,,
318,53113,,,,,
315,53125,,,,,
316,53136,,,,,
317,53147,,,,,
290,53159,,,,,
344,53171,,,,,
623,53182,,,,,
577,53193,,,,,
255,53204,,,,,
263,53216,,,,,
305,53228,,,,,
309,53239,,,,,
315,53251,,,,,
318,53262,,,,,
325,53273,,,,,
329,53284,,,,,
335,53297,,,,,
341,53308,,,,,
347,53319,,,,,
355,53330,,,,,
360,53342,,,,,
370,53353,,,,,
375,53365,,,,,
379,53377,,,,,
378,53388,,,,,
370,53399,,,,,
360,53410,,,,,
343,53422,,,,,
329,53434,,,,,
317,53445,,,,,
310,53456,,,,,
310,53468,,,,,
309,53479,,,,,
310,53490,,,,,
312,53502,,,,,
316,53514,,,,,
318,53525,,,,,
317,53536,,,,,
319,53548,,,,,
320,53560,,,,,
322,53571,,,,,
322,53582,,,,,
323,53594,,,,,
323,53605,,,,,
335,53616,,,,,
339,53628,,,,,
331,53640,,,,,
322,53651,,,,,
316,53662,,,,,
316,53673,,,,,
315,53685,,,,,
314,53697,,,,,
316,53708,,,,,
304,53720,,,,,
295,53731,,,,,
514,53742,,,,,
658,53753,,,,,
333,53766,,,,,
245,53777,,,,,
294,53788,,,,,
310,53799,,,,,
313,53811,,,,,
317,53822,,,,,
323,53834,,,,,
328,53846,,,,,
333,53857,,,,,
340,53868,,,,,
343,53879,,,,,
352,53892,,,,,
359,53903,,,,,
368,53914,,,,,
376,53925,,,,,
379,53937,,,,,
381,53948,,,,,
377,53960,,,,,
367,53971,,,,,
348,53983,,,,,
333,53994,,,,,
317,54005,,,,,
311,54017,,,,,
307,54029,,,,,
305,54040,,,,,
308,54051,,,,,
309,54063,,,,,
310,54074,,,,,
309,54085,,,,,
314,54097,,,,,
316,54109,,,,,
316,54120,,,,,
319,54131,,,,,
319,54142,,,,,
322,54154,,,,,
318,54166,,,,,
330,54177,,,,,
335,54189,,,,,
333,54200,,,,,
324,54211,,,,,
317,54222,,,,,
313,54235,,,,,
312,54246,,,,,
312,54257,,,,,
314,54268,,,,,
311,54280,,,,,
281,54292,,,,,
427,54303,,,,,
661,54315,,,,,
441,54326,,,,,
230,54337,,,,,
271,54348,,,,,
301,54361,,,,,
309,54372,,,,,
312,54383,,,,,
319,54394,,,,,
327,54406,,,,,
333,54417,,,,,
336,54429,,,,,
340,54440,,,,,
349,54452,,,,,
356,54463,,,,,
367,54474,,,,,
375,54486,,,,,
382,54498,,,,,
383,54509,,,,,
379,54520,,,,,
372,54532,,,,,
353,54543,,,,,
339,54554,,,,,
322,54566,,,,,
309,54578,,,,,
305,54589,,,,,
304,54600,,,,,
305,54611,,,,,
304,54624,,,,,
305,54635,,,,,
308,54646,,,,,
312,54658,,,,,
315,54669,,,,,
315,54680,,,,,
318,54692,,,,,
319,54704,,,,,
323,54715,,,,,
320,54726,,,,,
330,54737,,,,,
339,54749,,,,,
334,54761,,,,,
327,54772,,,,,
319,54784,,,,,
315,54795,,,,,
314,54806,,,,,
315,54817,,,,,
315,54830,,,,,
313,54841,,,,,
286,54852,,,,,
384,54863,,,,,
659,54875,,,,,
492,54886,,,,,
229,54898,,,,,
269,54909,,,,,
307,54921,,,,,
312,54932,,,,,
315,54943,,,,,
320,54955,,,,,
327,54967,,,,,
330,54978,,,,,
336,54989,,,,,
343,55001,,,,,
350,55012,,,,,
356,55024,,,,,
367,55035,,,,,
375,55047,,,,,
381,55058,,,,,
386,55069,,,,,
381,55080,,,,,
376,55093,,,,,
360,55104,,,,,
343,55115,,,,,
325,55127,,,,,
315,55138,,,,,
311,55149,,,,,
307,55161,,,,,
309,55173,,,,,
310,55184,,,,,
313,55195,,,,,
314,55206,,,,,
316,55218,,,,,
320,55230,,,,,
320,55241,,,,,
322,55252,,,,,
323,55264,,,,,
329,55275,,,,,
324,55286,,,,,
327,55299,,,,,
340,55310,,,,,
339,55321,,,,,
336,55332,,,,,
324,55344,,,,,
320,55356,,,,,
318,55367,,,,,
320,55378,,,,,
319,55390,,,,,
319,55401,,,,,
305,55412,,,,,
307,55425,,,,,
547,55436,,,,,
644,55447,,,,,
301,55458,,,,,
251,55470,,,,,
298,55481,,,,,
312,55493,,,,,
314,55504,,,,,
320,55516,,,,,
325,55527,,,,,
331,55538,,,,,
337,55549,,,,,
341,55562,,,,,
348,55573,,,,,
352,55584,,,,,
362,55596,,,,,
372,55607,,,,,
378,55618,,,,,
384,55630,,,,,
383,55642,,,,,
378,55653,,,,,
364,55664,,,,,
350,55675,,,,,
331,55687,,,,,
316,55699,,,,,
312,55710,,,,,
306,55721,,,,,
309,55733,,,,,
307,55744,,,,,
311,55756,,,,,
311,55768,,,,,
314,55779,,,,,
315,55790,,,,,
316,55801,,,,,
317,55813,,,,,
317,55825,,,,,
321,55836,,,,,
322,55847,,,,,
321,55859,,,,,
323,55870,,,,,
333,55881,,,,,
340,55894,,,,,
332,55905,,,,,
323,55916,,,,,
317,55927,,,,,
316,55939,,,,,
316,55950,,,,,
314,55962,,,,,
317,55973,,,,,
309,55985,,,,,
289,55996,,,,,
477,56007,,,,,
659,56018,,,,,
376,56031,,,,,
245,56042,,,,,
291,56053,,,,,
309,56065,,,,,
312,56076,,,,,
316,56088,,,,,
321,56099,,,,,
326,56111,,,,,
329,56122,,,,,
337,56133,,,,,
340,56144,,,,,
348,56157,,,,,
356,56168,,,,,
365,56179,,,,,
372,56190,,,,,
377,56202,,,,,
379,56213,,,,,
374,56225,,,,,
367,56237,,,,,
352,56248,,,,,
331,56259,,,,,
317,56270,,,,,
307,56282,,,,,
306,56294,,,,,
304,56305,,,,,
305,56316,,,,,
307,56328,,,,,
309,56339,,,,,
311,56350,,,,,
311,56363,,,,,
314,56374,,,,,
315,56385,,,,,
319,56396,,,,,
320,56408,,,,,
320,56419,,,,,
324,56431,,,,,
320,56442,,,,,
331,56454,,,,,
339,56465,,,,,
336,56476,,,,,
327,56488,,,,,
319,56500,,,,,
316,56511,,,,,
317,56522,,,,,
317,56534,,,,,
314,56545,,,,,
316,56557,,,,,
287,56568,,,,,
379,56580,,,,,
659,56591,,,,,
513,56602,,,,,
240,56613,,,,,
270,56626,,,,,
308,56637,,,,,
313,56648,,,,,
316,56659,,,,,
323,56671,,,,,
326,56682,,,,,
333,56694,,,,,
336,56706,,,,,
344,56717,,,,,
350,56728,,,,,
357,56739,,,,,
370,56751,,,,,
375,56763,,,,,
383,56774,,,,,
384,56785,,,,,
383,56797,,,,,
376,56808,,,,,
362,56820,,,,,
345,56832,,,,,
325,56843,,,,,
315,56854,,,,,
308,56865,,,,,
307,56877,,,,,
306,56889,,,,,
307,56900,,,,,
311,56911,,,,,
310,56923,,,,,
315,56934,,,,,
314,56945,,,,,
317,56957,,,,,
318,56969,,,,,
318,56980,,,,,
320,56991,,,,,
323,57003,,,,,
323,57014,,,,,
320,57026,,,,,
333,57037,,,,,
339,57049,,,,,
335,57060,,,,,
323,57071,,,,,
317,57082,,,,,
317,57095,,,,,
316,57106,,,,,
315,57117,,,,,
317,57128,,,,,
311,57140,,,,,
290,57151,,,,,
447,57163,,,,,
660,57175,,,,,
399,57186,,,,,
234,57197,,,,,
282,57208,,,,,
309,57221,,,,,
315,57232,,,,,
319,57243,,,,,
325,57254,,,,,
328,57266,,,,,
335,57277,,,,,
341,57289,,,,,
346,57300,,,,,
354,57312,,,,,
359,57323,,,,,
371,57334,,,,,
378,57346,,,,,
382,57358,,,,,
384,57369,,,,,
380,57380,,,,,
372,57392,,,,,
356,57403,,,,,
341,57414,,,,,
321,57426,,,,,
313,57438,,,,,
310,57449,,,,,
305,57460,,,,,
307,57472,,,,,
307,57483,,,,,
310,57495,,,,,
313,57506,,,,,
316,57518,,,,,
318,57529,,,,,
319,57540,,,,,
318,57552,,,,,
318,57564,,,,,
322,57575,,,,,
320,57586,,,,,
323,57597,,,,,
321,57609,,,,,
325,57621,,,,,
337,57632,,,,,
337,57644,,,,,
331,57655,,,,,
318,57666,,,,,
315,57677,,,,,
317,57690,,,,,
317,57701,,,,,
318,57712,,,,,
317,57723,,,,,
298,57735,,,,,
338,57746,,,,,
613,57758,,,,,
588,57769,,,,,
253,57781,,,,,
261,57792,,,,,
304,57803,,,,,
312,57815,,,,,
315,57827,,,,,
320,57838,,,,,
325,57849,,,,,
330,57861,,,,,
336,57872,,,,,
339,57883,,,,,
349,57895,,,,,
355,57907,,,,,
362,57918,,,,,
373,57929,,,,,
378,57940,,,,,
383,57953,,,,,
380,57964,,,,,
375,57975,,,,,
363,57987,,,,,
347,57998,,,,,
331,58009,,,,,
317,58021,,,,,
310,58033,,,,,
306,58044,,,,,
308,58055,,,,,
310,58066,,,,,
309,58078,,,,,
312,58090,,,,,
314,58101,,,,,
316,58113,,,,,
316,58124,,,,,
319,58135,,,,,
318,58146,,,,,
320,58159,,,,,
324,58170,,,,,
323,58181,,,,,
322,58192,,,,,
331,58204,,,,,
339,58215,,,,,
334,58227,,,,,
322,58238,,,,,
316,58250,,,,,
315,58261,,,,,
317,58272,,,,,
314,58285,,,,,
318,58296,,,,,
312,58307,,,,,
285,58318,,,,,
437,58330,,,,,
658,58341,,,,,
416,58353,,,,,
237,58364,,,,,
281,58376,,,,,
309,58387,,,,,
312,58398,,,,,
317,58409,,,,,
323,58422,,,,,
329,58433,,,,,
329,58444,,,,,
337,58456,,,,,
342,58467,,,,,
348,58478,,,,,
359,58490,,,,,
365,58502,,,,,
375,58513,,,,,
380,58524,,,,,
383,58535,,,,,
376,58547,,,,,
370,58559,,,,,
359,58570,,,,,
338,58582,,,,,
323,58593,,,,,
311,58604,,,,,
309,58615,,,,,
307,58628,,,,,
308,58639,,,,,
309,58650,,,,,
309,58661,,,,,
313,58673,,,,,
314,58685,,,,,
318,58696,,,,,
320,58707,,,,,
319,58719,,,,,
320,58730,,,,,
322,58741,,,,,
322,58754,,,,,
325,58765,,,,,
336,58776,,,,,
335,58787,,,,,
330,58799,,,,,
319,58810,,,,,
312,58822,,,,,
314,58833,,,,,
315,58845,,,,,
316,58856,,,,,
317,58867,,,,,
293,58878,,,,,
327,58891,,,,,
614,58902,,,,,
614,58913,,,,,
262,58925,,,,,
251,58936,,,,,
296,58947,,,,,
311,58959,,,,,
314,58971,,,,,
319,58982,,,,,
326,58993,,,,,
329,59004,,,,,
335,59017,,,,,
340,59028,,,,,
349,59039,,,,,
355,59051,,,,,
361,59062,,,,,
372,59073,,,,,
381,59085,,,,,
385,59097,,,,,
380,59108,,,,,
374,59119,,,,,
366,59130,,,,,
345,59142,,,,,
328,59154,,,,,
312,59165,,,,,
307,59176,,,,,
305,59188,,,,,
304,59199,,,,,
307,59210,,,,,
306,59223,,,,,
310,59234,,,,,
312,59245,,,,,
314,59256,,,,,
315,59268,,,,,
318,59279,,,,,
323,59291,,,,,
321,59302,,,,,
329,59314,,,,,
332,59325,,,,,
336,59336,,,,,
330,59347,,,,,
317,59360,,,,,
314,59371,,,,,
311,59382,,,,,
313,59394,,,,,
314,59405,,,,,
315,59417,,,,,
299,59428,,,,,
298,59440,,,,,
542,59451,,,,,
633,59462,,,,,
286,59473,,,,,
238,59486,,,,,
290,59497,,,,,
307,59508,,,,,
314,59520,,,,,
319,59531,,,,,
323,59542,,,,,
329,59554,,,,,
334,59566,,,,,
342,59577,,,,,
348,59588,,,,,
352,59599,,,,,
363,59611,,,,,
372,59623,,,,,
379,59634,,,,,
381,59645,,,,,
380,59657,,,,,
376,59668,,,,,
363,59679,,,,,
348,59692,,,,,
327,59703,,,,,
316,59714,,,,,
307,59725,,,,,
307,59737,,,,,
304,59749,,,,,
303,59760,,,,,
308,59771,,,,,
308,59783,,,,,
312,59794,,,,,
314,59805,,,,,
317,59817,,,,,
321,59829,,,,,
324,59840,,,,,
322,59851,,,,,
329,59863,,,,,
338,59874,,,,,
335,59886,,,,,
329,59897,,,,,
320,59909,,,,,
315,59920,,,,,
316,59931,,,,,
315,59942,,,,,
317,59955,,,,,
315,59966,,,,,
290,59977,,,,,
341,59988,,,,,
609,60000,,,,,
568,60011,,,,,
