EKG,T,,,,,
404,2,94.10864575,0.031412324,1.219512195,0.018954136,0
404,3,,,,,
403,4,,,,,
403,5,,,,,
402,6,,,,,
401,7,,,,,
401,8,,,,,
400,9,,,,,
399,10,,,,,
398,11,,,,,
394,19,,,,,
397,27,,,,,
390,35,,,,,
385,45,,,,,
380,53,,,,,
369,61,,,,,
368,69,,,,,
359,77,,,,,
359,86,,,,,
357,94,,,,,
353,102,,,,,
356,112,,,,,
351,121,,,,,
356,131,,,,,
351,140,,,,,
356,149,,,,,
351,158,,,,,
355,167,,,,,
352,178,,,,,
355,187,,,,,
353,196,,,,,
354,205,,,,,
353,215,,,,,
352,224,,,,,
354,233,,,,,
352,242,,,,,
355,252,,,,,
349,262,,,,,
355,271,,,,,
349,280,,,,,
353,289,,,,,
349,299,,,,,
354,308,,,,,
351,318,,,,,
356,327,,,,,
354,336,,,,,
356,346,,,,,
354,355,,,,,
352,364,,,,,
353,373,,,,,
350,384,,,,,
352,393,,,,,
347,402,,,,,
352,411,,,,,
348,420,,,,,
352,430,,,,,
347,439,,,,,
352,449,,,,,
348,458,,,,,
352,467,,,,,
347,477,,,,,
344,486,,,,,
349,495,,,,,
383,504,,,,,
429,515,,,,,
425,524,,,,,
414,533,,,,,
351,542,,,,,
350,551,,,,,
346,561,,,,,
350,570,,,,,
344,580,,,,,
349,589,,,,,
345,599,,,,,
349,608,,,,,
347,617,,,,,
350,626,,,,,
349,635,,,,,
351,646,,,,,
353,655,,,,,
352,664,,,,,
356,673,,,,,
353,683,,,,,
359,692,,,,,
357,701,,,,,
365,711,,,,,
363,720,,,,,
370,730,,,,,
367,739,,,,,
372,748,,,,,
368,757,,,,,
369,766,,,,,
362,777,,,,,
357,786,,,,,
349,795,,,,,
342,804,,,,,
341,814,,,,,
335,823,,,,,
338,832,,,,,
333,841,,,,,
338,851,,,,,
333,861,,,,,
339,870,,,,,
335,879,,,,,
339,888,,,,,
336,898,,,,,
339,907,,,,,
337,917,,,,,
339,926,,,,,
340,935,,,,,
339,945,,,,,
341,954,,,,,
339,963,,,,,
342,972,,,,,
338,983,,,,,
343,992,,,,,
338,1001,,,,,
344,1011,,,,,
340,1021,,,,,
346,1032,,,,,
343,1043,,,,,
347,1053,,,,,
342,1063,,,,,
344,1074,,,,,
341,1084,,,,,
341,1094,,,,,
340,1104,,,,,
341,1116,,,,,
341,1126,,,,,
341,1136,,,,,
342,1146,,,,,
340,1157,,,,,
344,1167,,,,,
341,1178,,,,,
341,1188,,,,,
333,1199,,,,,
359,1209,,,,,
405,1219,,,,,
419,1229,,,,,
403,1240,,,,,
347,1251,,,,,
340,1261,,,,,
345,1271,,,,,
339,1282,,,,,
344,1292,,,,,
339,1302,,,,,
344,1313,,,,,
341,1324,,,,,
346,1334,,,,,
343,1344,,,,,
347,1354,,,,,
347,1364,,,,,
349,1376,,,,,
350,1386,,,,,
351,1396,,,,,
354,1406,,,,,
356,1417,,,,,
362,1427,,,,,
362,1437,,,,,
367,1448,,,,,
363,1459,,,,,
367,1469,,,,,
358,1479,,,,,
354,1489,,,,,
342,1500,,,,,
340,1511,,,,,
331,1521,,,,,
333,1531,,,,,
328,1542,,,,,
332,1552,,,,,
327,1562,,,,,
333,1572,,,,,
329,1584,,,,,
333,1594,,,,,
331,1604,,,,,
333,1614,,,,,
332,1625,,,,,
334,1635,,,,,
333,1646,,,,,
334,1656,,,,,
335,1667,,,,,
334,1677,,,,,
335,1687,,,,,
333,1697,,,,,
336,1709,,,,,
335,1719,,,,,
339,1729,,,,,
337,1739,,,,,
340,1750,,,,,
335,1760,,,,,
338,1770,,,,,
334,1781,,,,,
336,1792,,,,,
333,1802,,,,,
336,1812,,,,,
333,1822,,,,,
337,1832,,,,,
334,1844,,,,,
337,1854,,,,,
335,1864,,,,,
336,1874,,,,,
328,1885,,,,,
342,1895,,,,,
387,1905,,,,,
412,1916,,,,,
410,1927,,,,,
345,1937,,,,,
336,1947,,,,,
335,1957,,,,,
336,1968,,,,,
333,1979,,,,,
337,1989,,,,,
334,1999,,,,,
337,2010,,,,,
335,2020,,,,,
340,2030,,,,,
337,2041,,,,,
342,2052,,,,,
340,2062,,,,,
345,2072,,,,,
343,2082,,,,,
349,2093,,,,,
348,2103,,,,,
355,2114,,,,,
354,2124,,,,,
358,2135,,,,,
357,2145,,,,,
358,2155,,,,,
353,2165,,,,,
347,2177,,,,,
339,2187,,,,,
332,2197,,,,,
328,2207,,,,,
324,2217,,,,,
325,2228,,,,,
322,2238,,,,,
325,2249,,,,,
323,2259,,,,,
327,2270,,,,,
324,2280,,,,,
328,2290,,,,,
325,2300,,,,,
329,2312,,,,,
326,2322,,,,,
330,2332,,,,,
327,2342,,,,,
331,2353,,,,,
327,2363,,,,,
331,2374,,,,,
329,2384,,,,,
331,2395,,,,,
331,2405,,,,,
335,2415,,,,,
334,2425,,,,,
334,2436,,,,,
332,2447,,,,,
331,2457,,,,,
331,2467,,,,,
329,2478,,,,,
331,2488,,,,,
329,2498,,,,,
332,2509,,,,,
330,2520,,,,,
333,2530,,,,,
330,2540,,,,,
334,2550,,,,,
327,2561,,,,,
328,2571,,,,,
349,2582,,,,,
406,2592,,,,,
407,2603,,,,,
392,2613,,,,,
333,2623,,,,,
334,2633,,,,,
331,2644,,,,,
333,2655,,,,,
330,2665,,,,,
333,2675,,,,,
332,2685,,,,,
334,2696,,,,,
335,2707,,,,,
335,2717,,,,,
337,2727,,,,,
337,2738,,,,,
340,2748,,,,,
340,2758,,,,,
344,2768,,,,,
344,2780,,,,,
350,2790,,,,,
350,2800,,,,,
356,2810,,,,,
353,2821,,,,,
358,2831,,,,,
353,2842,,,,,
351,2852,,,,,
340,2863,,,,,
337,2873,,,,,
327,2883,,,,,
327,2893,,,,,
321,2904,,,,,
324,2915,,,,,
322,2925,,,,,
325,2935,,,,,
323,2946,,,,,
325,2956,,,,,
325,2966,,,,,
326,2977,,,,,
327,2988,,,,,
327,2998,,,,,
328,3008,,,,,
327,3018,,,,,
329,3028,,,,,
327,3040,,,,,
330,3050,,,,,
327,3060,,,,,
331,3070,,,,,
328,3081,,,,,
331,3091,,,,,
329,3101,,,,,
334,3112,,,,,
332,3123,,,,,
337,3133,,,,,
331,3143,,,,,
334,3153,,,,,
330,3164,,,,,
332,3175,,,,,
329,3185,,,,,
331,3195,,,,,
330,3206,,,,,
331,3216,,,,,
330,3226,,,,,
331,3236,,,,,
332,3248,,,,,
331,3258,,,,,
326,3268,,,,,
327,3278,,,,,
364,3289,,,,,
408,3299,,,,,
408,3310,,,,,
366,3320,,,,,
332,3331,,,,,
329,3341,,,,,
332,3351,,,,,
328,3361,,,,,
332,3373,,,,,
329,3383,,,,,
333,3393,,,,,
330,3403,,,,,
335,3414,,,,,
332,3424,,,,,
337,3434,,,,,
335,3445,,,,,
339,3456,,,,,
339,3466,,,,,
343,3476,,,,,
344,3486,,,,,
348,3496,,,,,
350,3508,,,,,
352,3518,,,,,
354,3528,,,,,
353,3538,,,,,
353,3549,,,,,
346,3559,,,,,
340,3569,,,,,
330,3580,,,,,
328,3591,,,,,
321,3601,,,,,
323,3611,,,,,
319,3621,,,,,
323,3632,,,,,
319,3643,,,,,
323,3653,,,,,
320,3663,,,,,
325,3674,,,,,
322,3684,,,,,
326,3694,,,,,
323,3705,,,,,
326,3716,,,,,
324,3726,,,,,
327,3736,,,,,
325,3746,,,,,
326,3757,,,,,
326,3767,,,,,
327,3778,,,,,
327,3788,,,,,
327,3799,,,,,
329,3809,,,,,
329,3819,,,,,
332,3829,,,,,
329,3841,,,,,
331,3851,,,,,
327,3861,,,,,
330,3871,,,,,
325,3881,,,,,
328,3892,,,,,
325,3902,,,,,
329,3913,,,,,
325,3923,,,,,
330,3934,,,,,
326,3944,,,,,
331,3954,,,,,
327,3964,,,,,
324,3976,,,,,
329,3986,,,,,
373,3996,,,,,
407,4006,,,,,
406,4017,,,,,
350,4027,,,,,
328,4038,,,,,
330,4048,,,,,
328,4059,,,,,
329,4069,,,,,
328,4079,,,,,
331,4089,,,,,
329,4100,,,,,
333,4111,,,,,
330,4121,,,,,
336,4131,,,,,
333,4142,,,,,
337,4152,,,,,
335,4162,,,,,
341,4173,,,,,
340,4184,,,,,
346,4194,,,,,
345,4204,,,,,
352,4214,,,,,
351,4225,,,,,
356,4235,,,,,
353,4246,,,,,
353,4256,,,,,
345,4267,,,,,
338,4277,,,,,
330,4287,,,,,
326,4297,,,,,
322,4308,,,,,
320,4319,,,,,
321,4329,,,,,
320,4339,,,,,
321,4349,,,,,
320,4360,,,,,
323,4371,,,,,
321,4381,,,,,
325,4391,,,,,
322,4402,,,,,
326,4412,,,,,
323,4422,,,,,
327,4432,,,,,
323,4444,,,,,
327,4454,,,,,
325,4464,,,,,
329,4474,,,,,
324,4485,,,,,
328,4495,,,,,
326,4506,,,,,
330,4516,,,,,
328,4527,,,,,
331,4537,,,,,
332,4547,,,,,
333,4557,,,,,
330,4568,,,,,
330,4579,,,,,
330,4589,,,,,
328,4599,,,,,
329,4610,,,,,
327,4620,,,,,
330,4630,,,,,
328,4641,,,,,
331,4652,,,,,
328,4662,,,,,
331,4672,,,,,
327,4682,,,,,
325,4692,,,,,
328,4704,,,,,
371,4714,,,,,
404,4724,,,,,
406,4734,,,,,
350,4745,,,,,
331,4755,,,,,
328,4765,,,,,
331,4776,,,,,
327,4787,,,,,
330,4797,,,,,
329,4807,,,,,
331,4817,,,,,
332,4828,,,,,
333,4839,,,,,
333,4849,,,,,
335,4859,,,,,
336,4870,,,,,
336,4880,,,,,
340,4890,,,,,
340,4900,,,,,
346,4912,,,,,
345,4922,,,,,
352,4932,,,,,
350,4942,,,,,
355,4953,,,,,
352,4963,,,,,
353,4974,,,,,
343,4984,,,,,
339,4995,,,,,
328,5005,,,,,
327,5015,,,,,
320,5025,,,,,
322,5037,,,,,
318,5047,,,,,
321,5057,,,,,
319,5067,,,,,
322,5078,,,,,
321,5088,,,,,
322,5098,,,,,
323,5109,,,,,
323,5120,,,,,
325,5130,,,,,
323,5140,,,,,
325,5150,,,,,
324,5160,,,,,
326,5172,,,,,
323,5182,,,,,
327,5192,,,,,
324,5202,,,,,
328,5213,,,,,
325,5223,,,,,
330,5233,,,,,
328,5244,,,,,
333,5255,,,,,
328,5265,,,,,
330,5275,,,,,
327,5285,,,,,
329,5296,,,,,
325,5307,,,,,
328,5317,,,,,
326,5327,,,,,
328,5338,,,,,
326,5348,,,,,
328,5358,,,,,
328,5369,,,,,
328,5380,,,,,
326,5390,,,,,
321,5400,,,,,
346,5410,,,,,
395,5421,,,,,
406,5431,,,,,
389,5442,,,,,
332,5452,,,,,
327,5463,,,,,
330,5473,,,,,
325,5483,,,,,
329,5493,,,,,
326,5505,,,,,
331,5515,,,,,
328,5525,,,,,
333,5535,,,,,
330,5545,,,,,
334,5556,,,,,
332,5566,,,,,
337,5577,,,,,
336,5587,,,,,
340,5598,,,,,
341,5608,,,,,
345,5618,,,,,
348,5628,,,,,
350,5640,,,,,
352,5650,,,,,
351,5660,,,,,
352,5670,,,,,
345,5681,,,,,
340,5691,,,,,
330,5702,,,,,
327,5712,,,,,
320,5723,,,,,
321,5733,,,,,
317,5743,,,,,
321,5753,,,,,
318,5764,,,,,
322,5775,,,,,
319,5785,,,,,
323,5795,,,,,
320,5806,,,,,
325,5816,,,,,
322,5826,,,,,
325,5837,,,,,
323,5848,,,,,
326,5858,,,,,
324,5868,,,,,
325,5878,,,,,
325,5889,,,,,
325,5899,,,,,
326,5910,,,,,
326,5920,,,,,
329,5931,,,,,
329,5941,,,,,
332,5951,,,,,
329,5961,,,,,
331,5972,,,,,
328,5983,,,,,
330,5993,,,,,
325,6003,,,,,
329,6013,,,,,
325,6024,,,,,
329,6035,,,,,
325,6045,,,,,
331,6055,,,,,
327,6066,,,,,
331,6076,,,,,
326,6086,,,,,
323,6096,,,,,
329,6108,,,,,
374,6118,,,,,
405,6128,,,,,
405,6138,,,,,
347,6149,,,,,
328,6159,,,,,
329,6170,,,,,
328,6180,,,,,
328,6191,,,,,
327,6201,,,,,
330,6211,,,,,
329,6221,,,,,
333,6232,,,,,
330,6243,,,,,
334,6253,,,,,
332,6263,,,,,
337,6274,,,,,
335,6284,,,,,
340,6294,,,,,
339,6305,,,,,
346,6316,,,,,
345,6326,,,,,
352,6336,,,,,
350,6346,,,,,
355,6356,,,,,
351,6368,,,,,
351,6378,,,,,
343,6388,,,,,
337,6398,,,,,
328,6409,,,,,
324,6419,,,,,
321,6429,,,,,
319,6440,,,,,
320,6451,,,,,
319,6461,,,,,
321,6471,,,,,
319,6481,,,,,
322,6492,,,,,
320,6503,,,,,
324,6513,,,,,
321,6523,,,,,
325,6534,,,,,
322,6544,,,,,
326,6554,,,,,
323,6564,,,,,
327,6576,,,,,
323,6586,,,,,
327,6596,,,,,
323,6606,,,,,
327,6617,,,,,
324,6627,,,,,
327,6638,,,,,
325,6648,,,,,
328,6659,,,,,
329,6669,,,,,
331,6679,,,,,
331,6689,,,,,
330,6701,,,,,
330,6711,,,,,
328,6721,,,,,
328,6731,,,,,
326,6742,,,,,
328,6752,,,,,
325,6762,,,,,
329,6773,,,,,
326,6784,,,,,
330,6794,,,,,
327,6804,,,,,
330,6814,,,,,
324,6824,,,,,
324,6836,,,,,
344,6846,,,,,
399,6856,,,,,
403,6866,,,,,
391,6877,,,,,
328,6887,,,,,
329,6897,,,,,
327,6908,,,,,
328,6919,,,,,
326,6929,,,,,
328,6939,,,,,
329,6949,,,,,
329,6960,,,,,
330,6971,,,,,
331,6981,,,,,
333,6991,,,,,
332,7002,,,,,
336,7012,,,,,
335,7022,,,,,
340,7033,,,,,
339,7044,,,,,
345,7054,,,,,
345,7064,,,,,
351,7074,,,,,
349,7085,,,,,
353,7095,,,,,
349,7106,,,,,
349,7116,,,,,
338,7127,,,,,
334,7137,,,,,
324,7147,,,,,
323,7157,,,,,
318,7169,,,,,
319,7179,,,,,
317,7189,,,,,
319,7199,,,,,
319,7209,,,,,
320,7220,,,,,
321,7230,,,,,
321,7241,,,,,
323,7251,,,,,
321,7262,,,,,
324,7272,,,,,
322,7282,,,,,
324,7292,,,,,
322,7304,,,,,
326,7314,,,,,
323,7324,,,,,
326,7334,,,,,
323,7345,,,,,
326,7355,,,,,
323,7366,,,,,
327,7376,,,,,
324,7387,,,,,
329,7397,,,,,
327,7407,,,,,
332,7417,,,,,
329,7428,,,,,
332,7439,,,,,
328,7449,,,,,
330,7459,,,,,
327,7470,,,,,
327,7480,,,,,
326,7490,,,,,
327,7501,,,,,
328,7512,,,,,
327,7522,,,,,
329,7532,,,,,
327,7542,,,,,
330,7553,,,,,
327,7563,,,,,
324,7574,,,,,
328,7584,,,,,
372,7595,,,,,
404,7605,,,,,
406,7615,,,,,
347,7625,,,,,
329,7636,,,,,
327,7647,,,,,
331,7657,,,,,
327,7667,,,,,
330,7677,,,,,
327,7688,,,,,
332,7699,,,,,
329,7709,,,,,
333,7719,,,,,
333,7730,,,,,
335,7740,,,,,
335,7750,,,,,
336,7760,,,,,
339,7772,,,,,
340,7782,,,,,
345,7792,,,,,
346,7802,,,,,
350,7813,,,,,
350,7823,,,,,
355,7834,,,,,
352,7844,,,,,
352,7855,,,,,
343,7865,,,,,
339,7875,,,,,
328,7885,,,,,
326,7896,,,,,
319,7907,,,,,
321,7917,,,,,
317,7927,,,,,
321,7938,,,,,
318,7948,,,,,
322,7958,,,,,
320,7969,,,,,
323,7980,,,,,
321,7990,,,,,
323,8000,,,,,
323,8010,,,,,
324,8020,,,,,
324,8032,,,,,
324,8042,,,,,
325,8052,,,,,
324,8062,,,,,
326,8073,,,,,
324,8083,,,,,
327,8093,,,,,
324,8104,,,,,
328,8115,,,,,
324,8125,,,,,
329,8135,,,,,
326,8145,,,,,
331,8156,,,,,
329,8167,,,,,
333,8177,,,,,
329,8187,,,,,
331,8198,,,,,
327,8208,,,,,
329,8218,,,,,
326,8228,,,,,
329,8240,,,,,
327,8250,,,,,
329,8260,,,,,
328,8270,,,,,
329,8281,,,,,
330,8291,,,,,
328,8302,,,,,
325,8312,,,,,
324,8323,,,,,
356,8333,,,,,
405,8343,,,,,
406,8353,,,,,
374,8365,,,,,
331,8375,,,,,
327,8385,,,,,
330,8395,,,,,
326,8406,,,,,
330,8416,,,,,
327,8426,,,,,
331,8437,,,,,
328,8448,,,,,
333,8458,,,,,
330,8468,,,,,
335,8478,,,,,
333,8488,,,,,
337,8500,,,,,
336,8510,,,,,
340,8520,,,,,
341,8530,,,,,
345,8541,,,,,
348,8551,,,,,
350,8561,,,,,
353,8572,,,,,
352,8583,,,,,
352,8593,,,,,
345,8603,,,,,
340,8613,,,,,
330,8624,,,,,
326,8635,,,,,
319,8645,,,,,
321,8655,,,,,
317,8666,,,,,
320,8676,,,,,
317,8686,,,,,
322,8697,,,,,
318,8708,,,,,
323,8718,,,,,
320,8728,,,,,
324,8738,,,,,
320,8749,,,,,
324,8759,,,,,
322,8770,,,,,
325,8780,,,,,
324,8791,,,,,
325,8801,,,,,
325,8811,,,,,
325,8821,,,,,
325,8833,,,,,
325,8843,,,,,
327,8853,,,,,
325,8863,,,,,
328,8873,,,,,
327,8884,,,,,
331,8894,,,,,
330,8905,,,,,
332,8915,,,,,
327,8926,,,,,
331,8936,,,,,
326,8946,,,,,
329,8956,,,,,
325,8968,,,,,
329,8978,,,,,
326,8988,,,,,
330,8998,,,,,
327,9009,,,,,
330,9019,,,,,
327,9030,,,,,
328,9040,,,,,
321,9051,,,,,
342,9061,,,,,
390,9071,,,,,
405,9081,,,,,
402,9092,,,,,
335,9103,,,,,
329,9113,,,,,
328,9123,,,,,
329,9134,,,,,
327,9144,,,,,
329,9154,,,,,
328,9165,,,,,
332,9176,,,,,
330,9186,,,,,
334,9196,,,,,
331,9206,,,,,
336,9217,,,,,
333,9227,,,,,
339,9238,,,,,
337,9248,,,,,
343,9259,,,,,
342,9269,,,,,
348,9279,,,,,
348,9289,,,,,
353,9300,,,,,
351,9311,,,,,
352,9321,,,,,
347,9331,,,,,
342,9341,,,,,
333,9352,,,,,
326,9363,,,,,
322,9373,,,,,
319,9383,,,,,
319,9394,,,,,
317,9404,,,,,
320,9414,,,,,
318,9424,,,,,
321,9436,,,,,
319,9446,,,,,
323,9456,,,,,
320,9466,,,,,
324,9477,,,,,
320,9487,,,,,
324,9498,,,,,
321,9508,,,,,
326,9519,,,,,
322,9529,,,,,
326,9539,,,,,
323,9549,,,,,
326,9560,,,,,
324,9571,,,,,
326,9581,,,,,
325,9591,,,,,
327,9602,,,,,
327,9612,,,,,
328,9622,,,,,
330,9633,,,,,
331,9644,,,,,
332,9654,,,,,
329,9664,,,,,
330,9674,,,,,
327,9684,,,,,
329,9696,,,,,
325,9706,,,,,
329,9716,,,,,
326,9726,,,,,
330,9737,,,,,
326,9747,,,,,
330,9757,,,,,
327,9768,,,,,
331,9779,,,,,
321,9789,,,,,
329,9799,,,,,
363,9809,,,,,
408,9820,,,,,
403,9831,,,,,
364,9841,,,,,
327,9851,,,,,
329,9862,,,,,
328,9872,,,,,
327,9882,,,,,
328,9892,,,,,
328,9904,,,,,
330,9914,,,,,
330,9924,,,,,
332,9934,,,,,
331,9945,,,,,
335,9955,,,,,
333,9966,,,,,
338,9976,,,,,
336,9987,,,,,
342,9997,,,,,
340,10007,,,,,
348,10018,,,,,
348,10031,,,,,
353,10042,,,,,
353,10053,,,,,
351,10064,,,,,
350,10076,,,,,
339,10087,,,,,
334,10099,,,,,
323,10110,,,,,
322,10122,,,,,
319,10133,,,,,
317,10144,,,,,
321,10156,,,,,
317,10168,,,,,
322,10179,,,,,
319,10190,,,,,
323,10202,,,,,
322,10213,,,,,
321,10224,,,,,
325,10236,,,,,
322,10248,,,,,
326,10259,,,,,
323,10270,,,,,
325,10281,,,,,
325,10293,,,,,
324,10305,,,,,
327,10316,,,,,
324,10328,,,,,
328,10339,,,,,
325,10350,,,,,
329,10362,,,,,
330,10374,,,,,
330,10385,,,,,
333,10396,,,,,
328,10407,,,,,
331,10419,,,,,
327,10431,,,,,
328,10442,,,,,
328,10454,,,,,
326,10465,,,,,
330,10476,,,,,
326,10487,,,,,
330,10500,,,,,
327,10511,,,,,
330,10522,,,,,
322,10533,,,,,
333,10545,,,,,
387,10556,,,,,
404,10568,,,,,
398,10579,,,,,
329,10591,,,,,
330,10602,,,,,
329,10613,,,,,
327,10625,,,,,
330,10637,,,,,
328,10648,,,,,
332,10659,,,,,
330,10671,,,,,
333,10682,,,,,
334,10694,,,,,
334,10705,,,,,
338,10717,,,,,
337,10728,,,,,
343,10739,,,,,
342,10750,,,,,
348,10763,,,,,
351,10774,,,,,
353,10785,,,,,
357,10797,,,,,
353,10808,,,,,
352,10819,,,,,
340,10831,,,,,
334,10843,,,,,
327,10854,,,,,
321,10865,,,,,
322,10876,,,,,
318,10888,,,,,
322,10900,,,,,
319,10911,,,,,
322,10923,,,,,
322,10934,,,,,
321,10945,,,,,
325,10956,,,,,
322,10969,,,,,
326,10980,,,,,
323,10991,,,,,
326,11002,,,,,
326,11014,,,,,
324,11025,,,,,
328,11037,,,,,
324,11048,,,,,
328,11060,,,,,
326,11071,,,,,
329,11082,,,,,
331,11095,,,,,
331,11106,,,,,
333,11117,,,,,
328,11128,,,,,
332,11140,,,,,
327,11151,,,,,
328,11163,,,,,
328,11174,,,,,
327,11186,,,,,
330,11197,,,,,
326,11208,,,,,
330,11219,,,,,
327,11232,,,,,
329,11243,,,,,
322,11254,,,,,
332,11266,,,,,
383,11277,,,,,
404,11288,,,,,
399,11300,,,,,
328,11312,,,,,
329,11323,,,,,
328,11334,,,,,
326,11345,,,,,
330,11357,,,,,
327,11369,,,,,
331,11380,,,,,
329,11392,,,,,
332,11403,,,,,
333,11414,,,,,
333,11426,,,,,
337,11438,,,,,
335,11449,,,,,
341,11460,,,,,
341,11471,,,,,
347,11483,,,,,
350,11495,,,,,
351,11506,,,,,
355,11517,,,,,
351,11529,,,,,
350,11540,,,,,
338,11551,,,,,
331,11564,,,,,
324,11575,,,,,
319,11586,,,,,
320,11597,,,,,
316,11609,,,,,
320,11620,,,,,
318,11632,,,,,
320,11643,,,,,
320,11655,,,,,
319,11666,,,,,
322,11677,,,,,
319,11688,,,,,
323,11701,,,,,
321,11712,,,,,
323,11723,,,,,
323,11735,,,,,
321,11746,,,,,
325,11757,,,,,
321,11769,,,,,
326,11781,,,,,
324,11792,,,,,
327,11803,,,,,
328,11814,,,,,
327,11827,,,,,
329,11838,,,,,
324,11849,,,,,
327,11860,,,,,
323,11872,,,,,
325,11883,,,,,
325,11895,,,,,
324,11907,,,,,
327,11918,,,,,
324,11929,,,,,
328,11940,,,,,
324,11952,,,,,
320,11964,,,,,
336,11975,,,,,
387,11986,,,,,
407,11998,,,,,
380,12009,,,,,
328,12020,,,,,
325,12033,,,,,
326,12044,,,,,
325,12055,,,,,
324,12066,,,,,
328,12078,,,,,
325,12089,,,,,
330,12101,,,,,
328,12112,,,,,
331,12124,,,,,
333,12135,,,,,
332,12146,,,,,
337,12158,,,,,
337,12170,,,,,
343,12181,,,,,
343,12192,,,,,
349,12204,,,,,
351,12215,,,,,
350,12227,,,,,
352,12238,,,,,
343,12250,,,,,
338,12261,,,,,
326,12272,,,,,
323,12283,,,,,
320,12296,,,,,
317,12307,,,,,
319,12318,,,,,
316,12329,,,,,
320,12341,,,,,
318,12352,,,,,
320,12364,,,,,
321,12376,,,,,
321,12387,,,,,
323,12398,,,,,
321,12409,,,,,
325,12421,,,,,
322,12433,,,,,
324,12444,,,,,
325,12455,,,,,
323,12467,,,,,
326,12478,,,,,
323,12489,,,,,
329,12502,,,,,
328,12513,,,,,
331,12524,,,,,
330,12535,,,,,
327,12547,,,,,
330,12559,,,,,
325,12570,,,,,
328,12581,,,,,
326,12593,,,,,
328,12604,,,,,
329,12615,,,,,
327,12627,,,,,
330,12639,,,,,
327,12650,,,,,
328,12661,,,,,
321,12673,,,,,
351,12684,,,,,
408,12696,,,,,
404,12707,,,,,
376,12719,,,,,
328,12730,,,,,
331,12741,,,,,
327,12752,,,,,
328,12765,,,,,
328,12776,,,,,
327,12787,,,,,
331,12798,,,,,
330,12810,,,,,
334,12821,,,,,
333,12833,,,,,
335,12845,,,,,
338,12856,,,,,
338,12867,,,,,
343,12878,,,,,
344,12891,,,,,
351,12902,,,,,
351,12913,,,,,
354,12924,,,,,
355,12936,,,,,
351,12947,,,,,
347,12959,,,,,
335,12971,,,,,
330,12982,,,,,
322,12993,,,,,
320,13004,,,,,
319,13016,,,,,
318,13028,,,,,
321,13039,,,,,
319,13050,,,,,
322,13062,,,,,
320,13073,,,,,
322,13084,,,,,
324,13096,,,,,
322,13108,,,,,
326,13119,,,,,
323,13130,,,,,
327,13142,,,,,
325,13153,,,,,
326,13165,,,,,
327,13176,,,,,
325,13188,,,,,
329,13199,,,,,
327,13210,,,,,
332,13221,,,,,
330,13234,,,,,
333,13245,,,,,
333,13256,,,,,
330,13267,,,,,
331,13279,,,,,
327,13291,,,,,
330,13302,,,,,
328,13314,,,,,
330,13325,,,,,
331,13336,,,,,
329,13347,,,,,
332,13360,,,,,
329,13371,,,,,
328,13382,,,,,
326,13393,,,,,
366,13405,,,,,
408,13416,,,,,
404,13428,,,,,
348,13440,,,,,
329,13451,,,,,
333,13462,,,,,
330,13473,,,,,
331,13485,,,,,
332,13497,,,,,
331,13508,,,,,
335,13519,,,,,
333,13531,,,,,
337,13542,,,,,
336,13553,,,,,
339,13565,,,,,
341,13577,,,,,
341,13588,,,,,
347,13599,,,,,
347,13611,,,,,
354,13623,,,,,
355,13634,,,,,
357,13645,,,,,
357,13657,,,,,
353,13668,,,,,
348,13679,,,,,
336,13691,,,,,
331,13703,,,,,
324,13714,,,,,
322,13725,,,,,
322,13736,,,,,
320,13748,,,,,
324,13760,,,,,
322,13771,,,,,
326,13783,,,,,
324,13794,,,,,
325,13805,,,,,
326,13816,,,,,
325,13829,,,,,
327,13840,,,,,
325,13851,,,,,
328,13862,,,,,
326,13874,,,,,
328,13885,,,,,
329,13897,,,,,
327,13908,,,,,
331,13920,,,,,
329,13931,,,,,
334,13942,,,,,
331,13954,,,,,
330,13966,,,,,
331,13977,,,,,
327,13988,,,,,
330,14000,,,,,
326,14011,,,,,
330,14023,,,,,
327,14034,,,,,
329,14046,,,,,
329,14057,,,,,
329,14068,,,,,
329,14080,,,,,
321,14092,,,,,
353,14103,,,,,
406,14114,,,,,
405,14126,,,,,
359,14137,,,,,
328,14148,,,,,
331,14160,,,,,
327,14172,,,,,
330,14183,,,,,
328,14194,,,,,
330,14205,,,,,
332,14217,,,,,
331,14229,,,,,
335,14240,,,,,
333,14252,,,,,
338,14263,,,,,
336,14274,,,,,
340,14285,,,,,
343,14298,,,,,
344,14309,,,,,
351,14320,,,,,
351,14331,,,,,
356,14343,,,,,
354,14355,,,,,
352,14366,,,,,
346,14377,,,,,
335,14389,,,,,
331,14400,,,,,
322,14411,,,,,
323,14424,,,,,
319,14435,,,,,
321,14446,,,,,
321,14457,,,,,
320,14469,,,,,
323,14480,,,,,
320,14492,,,,,
325,14503,,,,,
322,14515,,,,,
324,14526,,,,,
325,14537,,,,,
323,14548,,,,,
327,14561,,,,,
324,14572,,,,,
329,14583,,,,,
328,14595,,,,,
330,14606,,,,,
330,14617,,,,,
327,14629,,,,,
330,14641,,,,,
325,14652,,,,,
328,14663,,,,,
325,14674,,,,,
326,14686,,,,,
327,14698,,,,,
326,14709,,,,,
329,14721,,,,,
326,14732,,,,,
328,14743,,,,,
320,14755,,,,,
348,14767,,,,,
403,14778,,,,,
404,14789,,,,,
356,14800,,,,,
325,14812,,,,,
331,14824,,,,,
327,14835,,,,,
328,14846,,,,,
329,14858,,,,,
328,14869,,,,,
332,14880,,,,,
329,14893,,,,,
334,14904,,,,,
333,14915,,,,,
336,14926,,,,,
338,14938,,,,,
338,14949,,,,,
344,14961,,,,,
343,14972,,,,,
350,14984,,,,,
350,14995,,,,,
353,15006,,,,,
354,15017,,,,,
349,15030,,,,,
346,15041,,,,,
333,15052,,,,,
329,15064,,,,,
321,15075,,,,,
320,15087,,,,,
320,15098,,,,,
317,15110,,,,,
321,15121,,,,,
318,15132,,,,,
323,15143,,,,,
320,15156,,,,,
322,15167,,,,,
324,15178,,,,,
322,15190,,,,,
325,15201,,,,,
322,15212,,,,,
326,15224,,,,,
325,15236,,,,,
326,15247,,,,,
329,15258,,,,,
328,15269,,,,,
333,15281,,,,,
328,15293,,,,,
330,15304,,,,,
328,15315,,,,,
326,15327,,,,,
327,15338,,,,,
325,15349,,,,,
329,15362,,,,,
325,15373,,,,,
329,15384,,,,,
327,15395,,,,,
328,15407,,,,,
326,15418,,,,,
321,15430,,,,,
354,15441,,,,,
403,15453,,,,,
406,15464,,,,,
345,15475,,,,,
327,15488,,,,,
330,15499,,,,,
327,15510,,,,,
329,15521,,,,,
327,15533,,,,,
331,15544,,,,,
330,15556,,,,,
332,15567,,,,,
334,15579,,,,,
333,15590,,,,,
338,15601,,,,,
336,15612,,,,,
341,15625,,,,,
342,15636,,,,,
346,15647,,,,,
350,15659,,,,,
351,15670,,,,,
356,15681,,,,,
353,15693,,,,,
354,15705,,,,,
345,15716,,,,,
336,15727,,,,,
330,15738,,,,,
322,15750,,,,,
323,15762,,,,,
319,15773,,,,,
322,15784,,,,,
321,15796,,,,,
322,15807,,,,,
324,15819,,,,,
321,15831,,,,,
325,15842,,,,,
322,15853,,,,,
326,15864,,,,,
324,15876,,,,,
324,15888,,,,,
326,15899,,,,,
324,15910,,,,,
328,15922,,,,,
326,15933,,,,,
331,15944,,,,,
330,15956,,,,,
330,15968,,,,,
330,15979,,,,,
326,15990,,,,,
329,16002,,,,,
325,16013,,,,,
329,16025,,,,,
326,16036,,,,,
327,16048,,,,,
329,16059,,,,,
326,16070,,,,,
331,16081,,,,,
324,16094,,,,,
325,16105,,,,,
351,16116,,,,,
407,16128,,,,,
406,16139,,,,,
348,16150,,,,,
330,16162,,,,,
327,16174,,,,,
330,16185,,,,,
327,16196,,,,,
328,16207,,,,,
331,16220,,,,,
329,16231,,,,,
334,16242,,,,,
331,16253,,,,,
336,16265,,,,,
334,16276,,,,,
337,16288,,,,,
340,16300,,,,,
340,16311,,,,,
347,16322,,,,,
346,16333,,,,,
353,16345,,,,,
352,16357,,,,,
352,16368,,,,,
351,16379,,,,,
341,16391,,,,,
337,16402,,,,,
325,16413,,,,,
324,16425,,,,,
320,16437,,,,,
319,16448,,,,,
322,16459,,,,,
319,16471,,,,,
323,16482,,,,,
320,16494,,,,,
325,16505,,,,,
322,16517,,,,,
324,16528,,,,,
326,16539,,,,,
323,16551,,,,,
327,16563,,,,,
323,16574,,,,,
328,16585,,,,,
326,16596,,,,,
327,16608,,,,,
331,16620,,,,,
329,16631,,,,,
333,16643,,,,,
327,16654,,,,,
330,16665,,,,,
327,16676,,,,,
327,16689,,,,,
328,16700,,,,,
325,16711,,,,,
330,16722,,,,,
326,16734,,,,,
330,16745,,,,,
328,16757,,,,,
327,16769,,,,,
323,16780,,,,,
341,16791,,,,,
401,16802,,,,,
403,16814,,,,,
376,16826,,,,,
328,16837,,,,,
330,16848,,,,,
330,16860,,,,,
326,16871,,,,,
331,16882,,,,,
327,16894,,,,,
333,16906,,,,,
331,16917,,,,,
333,16928,,,,,
336,16940,,,,,
333,16952,,,,,
340,16963,,,,,
337,16974,,,,,
344,16986,,,,,
345,16997,,,,,
349,17008,,,,,
353,17020,,,,,
351,17032,,,,,
356,17043,,,,,
349,17054,,,,,
348,17065,,,,,
336,17077,,,,,
329,17089,,,,,
326,17100,,,,,
319,17112,,,,,
322,17123,,,,,
318,17134,,,,,
323,17145,,,,,
320,17158,,,,,
322,17169,,,,,
324,17180,,,,,
320,17191,,,,,
325,17203,,,,,
321,17214,,,,,
326,17226,,,,,
323,17238,,,,,
324,17249,,,,,
326,17260,,,,,
322,17271,,,,,
327,17284,,,,,
322,17295,,,,,
328,17306,,,,,
327,17317,,,,,
329,17329,,,,,
331,17340,,,,,
325,17352,,,,,
330,17363,,,,,
323,17375,,,,,
326,17386,,,,,
324,17397,,,,,
324,17409,,,,,
327,17421,,,,,
323,17432,,,,,
328,17443,,,,,
324,17455,,,,,
327,17466,,,,,
316,17477,,,,,
334,17489,,,,,
392,17501,,,,,
403,17512,,,,,
393,17523,,,,,
325,17534,,,,,
329,17546,,,,,
324,17558,,,,,
324,17569,,,,,
326,17581,,,,,
323,17592,,,,,
329,17603,,,,,
325,17614,,,,,
330,17627,,,,,
329,17638,,,,,
331,17649,,,,,
335,17660,,,,,
333,17672,,,,,
340,17684,,,,,
338,17695,,,,,
346,17707,,,,,
347,17718,,,,,
349,17729,,,,,
352,17740,,,,,
347,17753,,,,,
346,17764,,,,,
333,17775,,,,,
329,17786,,,,,
320,17798,,,,,
317,17809,,,,,
318,17821,,,,,
314,17832,,,,,
319,17844,,,,,
316,17855,,,,,
321,17866,,,,,
319,17878,,,,,
320,17890,,,,,
323,17901,,,,,
320,17912,,,,,
325,17924,,,,,
320,17935,,,,,
325,17946,,,,,
323,17958,,,,,
324,17970,,,,,
327,17981,,,,,
324,17992,,,,,
329,18003,,,,,
325,18016,,,,,
331,18027,,,,,
330,18038,,,,,
329,18050,,,,,
331,18061,,,,,
326,18072,,,,,
329,18084,,,,,
324,18096,,,,,
328,18107,,,,,
326,18118,,,,,
327,18129,,,,,
330,18141,,,,,
326,18153,,,,,
331,18164,,,,,
320,18176,,,,,
327,18187,,,,,
365,18198,,,,,
406,18209,,,,,
405,18222,,,,,
334,18233,,,,,
329,18244,,,,,
324,18255,,,,,
327,18267,,,,,
325,18278,,,,,
325,18290,,,,,
327,18301,,,,,
323,18313,,,,,
330,18324,,,,,
326,18335,,,,,
332,18347,,,,,
331,18359,,,,,
333,18370,,,,,
338,18381,,,,,
336,18393,,,,,
344,18404,,,,,
342,18416,,,,,
349,18427,,,,,
349,18439,,,,,
348,18450,,,,,
347,18461,,,,,
337,18472,,,,,
334,18485,,,,,
322,18496,,,,,
321,18507,,,,,
316,18519,,,,,
315,18530,,,,,
318,18541,,,,,
315,18553,,,,,
320,18565,,,,,
316,18576,,,,,
322,18587,,,,,
321,18598,,,,,
322,18610,,,,,
325,18622,,,,,
322,18633,,,,,
327,18644,,,,,
322,18656,,,,,
327,18667,,,,,
325,18678,,,,,
325,18691,,,,,
330,18702,,,,,
327,18713,,,,,
333,18724,,,,,
330,18736,,,,,
334,18748,,,,,
331,18759,,,,,
331,18770,,,,,
331,18782,,,,,
327,18793,,,,,
333,18804,,,,,
327,18817,,,,,
332,18828,,,,,
330,18839,,,,,
331,18850,,,,,
334,18862,,,,,
328,18873,,,,,
329,18885,,,,,
351,18896,,,,,
409,18908,,,,,
404,18919,,,,,
362,18930,,,,,
334,18941,,,,,
331,18954,,,,,
335,18965,,,,,
330,18976,,,,,
335,18988,,,,,
334,18999,,,,,
335,19010,,,,,
338,19022,,,,,
335,19034,,,,,
341,19045,,,,,
337,19056,,,,,
343,19067,,,,,
343,19079,,,,,
345,19091,,,,,
351,19102,,,,,
350,19113,,,,,
357,19125,,,,,
354,19136,,,,,
359,19148,,,,,
354,19160,,,,,
347,19171,,,,,
341,19182,,,,,
329,19193,,,,,
329,19205,,,,,
321,19217,,,,,
324,19228,,,,,
322,19239,,,,,
322,19251,,,,,
325,19262,,,,,
321,19273,,,,,
327,19286,,,,,
322,19297,,,,,
327,19308,,,,,
326,19319,,,,,
325,19331,,,,,
328,19342,,,,,
324,19354,,,,,
329,19365,,,,,
324,19377,,,,,
329,19388,,,,,
328,19399,,,,,
330,19410,,,,,
334,19423,,,,,
330,19434,,,,,
334,19445,,,,,
328,19457,,,,,
331,19468,,,,,
328,19480,,,,,
327,19491,,,,,
330,19503,,,,,
326,19514,,,,,
332,19525,,,,,
327,19536,,,,,
332,19549,,,,,
329,19560,,,,,
322,19571,,,,,
344,19582,,,,,
396,19594,,,,,
407,19605,,,,,
382,19617,,,,,
332,19629,,,,,
330,19640,,,,,
328,19651,,,,,
330,19662,,,,,
325,19674,,,,,
332,19686,,,,,
328,19697,,,,,
333,19708,,,,,
332,19720,,,,,
332,19731,,,,,
336,19742,,,,,
333,19755,,,,,
341,19766,,,,,
339,19777,,,,,
346,19788,,,,,
348,19800,,,,,
349,19811,,,,,
355,19823,,,,,
350,19834,,,,,
354,19846,,,,,
342,19857,,,,,
338,19868,,,,,
328,19880,,,,,
321,19892,,,,,
321,19903,,,,,
315,19914,,,,,
320,19926,,,,,
315,19937,,,,,
319,19949,,,,,
318,19960,,,,,
318,19972,,,,,
322,19983,,,,,
318,19994,,,,,
324,20005,,,,,
319,20018,,,,,
323,20029,,,,,
322,20040,,,,,
321,20051,,,,,
324,20063,,,,,
320,20074,,,,,
326,20086,,,,,
322,20098,,,,,
327,20109,,,,,
328,20120,,,,,
326,20131,,,,,
327,20143,,,,,
323,20155,,,,,
327,20166,,,,,
321,20177,,,,,
325,20189,,,,,
324,20200,,,,,
323,20212,,,,,
327,20224,,,,,
323,20235,,,,,
329,20246,,,,,
321,20257,,,,,
320,20269,,,,,
347,20281,,,,,
404,20292,,,,,
406,20303,,,,,
358,20315,,,,,
329,20326,,,,,
325,20337,,,,,
326,20349,,,,,
324,20361,,,,,
324,20372,,,,,
329,20383,,,,,
325,20395,,,,,
332,20406,,,,,
328,20418,,,,,
332,20429,,,,,
333,20441,,,,,
333,20452,,,,,
338,20463,,,,,
337,20474,,,,,
345,20487,,,,,
344,20498,,,,,
350,20509,,,,,
351,20520,,,,,
349,20532,,,,,
351,20543,,,,,
340,20555,,,,,
336,20567,,,,,
323,20578,,,,,
321,20589,,,,,
318,20600,,,,,
316,20613,,,,,
319,20624,,,,,
315,20635,,,,,
321,20646,,,,,
317,20658,,,,,
321,20669,,,,,
320,20681,,,,,
319,20692,,,,,
324,20704,,,,,
319,20715,,,,,
325,20726,,,,,
320,20738,,,,,
323,20750,,,,,
323,20761,,,,,
321,20772,,,,,
325,20784,,,,,
321,20795,,,,,
328,20806,,,,,
325,20818,,,,,
329,20830,,,,,
328,20841,,,,,
324,20852,,,,,
327,20864,,,,,
320,20875,,,,,
325,20887,,,,,
321,20898,,,,,
324,20910,,,,,
324,20921,,,,,
322,20932,,,,,
327,20944,,,,,
322,20956,,,,,
324,20967,,,,,
316,20978,,,,,
351,20989,,,,,
405,21001,,,,,
402,21013,,,,,
345,21024,,,,,
321,21036,,,,,
328,21047,,,,,
322,21058,,,,,
325,21069,,,,,
325,21082,,,,,
324,21093,,,,,
329,21104,,,,,
325,21115,,,,,
332,21127,,,,,
328,21138,,,,,
332,21150,,,,,
334,21161,,,,,
333,21173,,,,,
341,21184,,,,,
339,21195,,,,,
348,21207,,,,,
345,21219,,,,,
350,21230,,,,,
350,21241,,,,,
345,21253,,,,,
343,21264,,,,,
330,21275,,,,,
327,21287,,,,,
318,21299,,,,,
318,21310,,,,,
316,21321,,,,,
314,21332,,,,,
319,21345,,,,,
315,21356,,,,,
321,21367,,,,,
317,21379,,,,,
320,21390,,,,,
321,21401,,,,,
319,21413,,,,,
323,21425,,,,,
320,21436,,,,,
325,21447,,,,,
321,21458,,,,,
323,21470,,,,,
323,21482,,,,,
323,21493,,,,,
327,21505,,,,,
324,21516,,,,,
331,21527,,,,,
326,21538,,,,,
327,21551,,,,,
328,21562,,,,,
324,21573,,,,,
327,21584,,,,,
323,21596,,,,,
328,21607,,,,,
324,21619,,,,,
327,21630,,,,,
328,21642,,,,,
326,21653,,,,,
330,21664,,,,,
319,21677,,,,,
337,21688,,,,,
384,21699,,,,,
405,21710,,,,,
386,21722,,,,,
325,21733,,,,,
330,21745,,,,,
325,21756,,,,,
329,21768,,,,,
326,21779,,,,,
329,21790,,,,,
330,21801,,,,,
328,21814,,,,,
334,21825,,,,,
330,21836,,,,,
336,21848,,,,,
334,21859,,,,,
337,21870,,,,,
340,21882,,,,,
341,21894,,,,,
348,21905,,,,,
347,21916,,,,,
354,21927,,,,,
350,21939,,,,,
351,21951,,,,,
346,21962,,,,,
335,21974,,,,,
332,21985,,,,,
321,21996,,,,,
323,22007,,,,,
318,22020,,,,,
319,22031,,,,,
321,22042,,,,,
318,22053,,,,,
322,22065,,,,,
318,22077,,,,,
325,22088,,,,,
321,22099,,,,,
323,22111,,,,,
325,22122,,,,,
322,22133,,,,,
327,22146,,,,,
323,22157,,,,,
328,22168,,,,,
325,22179,,,,,
328,22191,,,,,
331,22202,,,,,
328,22214,,,,,
332,22225,,,,,
326,22237,,,,,
330,22248,,,,,
325,22259,,,,,
325,22270,,,,,
327,22283,,,,,
324,22294,,,,,
329,22305,,,,,
324,22317,,,,,
330,22328,,,,,
326,22339,,,,,
326,22351,,,,,
322,22363,,,,,
342,22374,,,,,
401,22385,,,,,
401,22396,,,,,
364,22409,,,,,
325,22420,,,,,
328,22431,,,,,
328,22443,,,,,
325,22454,,,,,
330,22465,,,,,
325,22477,,,,,
332,22489,,,,,
329,22500,,,,,
332,22511,,,,,
334,22522,,,,,
332,22534,,,,,
338,22546,,,,,
335,22557,,,,,
343,22568,,,,,
342,22580,,,,,
347,22591,,,,,
351,22602,,,,,
350,22615,,,,,
354,22626,,,,,
346,22637,,,,,
345,22648,,,,,
333,22660,,,,,
327,22671,,,,,
323,22683,,,,,
318,22694,,,,,
321,22706,,,,,
317,22717,,,,,
322,22728,,,,,
319,22739,,,,,
320,22752,,,,,
322,22763,,,,,
320,22774,,,,,
325,22786,,,,,
321,22797,,,,,
325,22809,,,,,
323,22820,,,,,
324,22832,,,,,
326,22843,,,,,
323,22854,,,,,
328,22865,,,,,
324,22878,,,,,
330,22889,,,,,
329,22900,,,,,
330,22912,,,,,
331,22923,,,,,
327,22934,,,,,
330,22946,,,,,
324,22958,,,,,
328,22969,,,,,
326,22980,,,,,
327,22991,,,,,
329,23003,,,,,
326,23015,,,,,
331,23026,,,,,
327,23037,,,,,
327,23049,,,,,
323,23060,,,,,
356,23071,,,,,
407,23084,,,,,
402,23095,,,,,
352,23106,,,,,
326,23117,,,,,
331,23129,,,,,
327,23141,,,,,
328,23152,,,,,
330,23163,,,,,
328,23175,,,,,
333,23186,,,,,
329,23197,,,,,
334,23209,,,,,
333,23221,,,,,
335,23232,,,,,
338,23243,,,,,
338,23255,,,,,
344,23266,,,,,
343,23278,,,,,
350,23289,,,,,
351,23301,,,,,
352,23312,,,,,
354,23323,,,,,
347,23334,,,,,
345,23347,,,,,
332,23358,,,,,
329,23369,,,,,
322,23380,,,,,
320,23392,,,,,
320,23403,,,,,
318,23415,,,,,
322,23427,,,,,
319,23438,,,,,
323,23449,,,,,
321,23460,,,,,
322,23472,,,,,
325,23484,,,,,
322,23495,,,,,
326,23506,,,,,
323,23518,,,,,
326,23529,,,,,
325,23541,,,,,
325,23553,,,,,
327,23564,,,,,
324,23575,,,,,
329,23586,,,,,
327,23598,,,,,
331,23610,,,,,
331,23621,,,,,
330,23632,,,,,
330,23644,,,,,
326,23655,,,,,
329,23666,,,,,
325,23678,,,,,
328,23690,,,,,
326,23701,,,,,
327,23712,,,,,
330,23724,,,,,
327,23735,,,,,
331,23747,,,,,
322,23758,,,,,
328,23770,,,,,
367,23781,,,,,
405,23792,,,,,
405,23803,,,,,
339,23816,,,,,
330,23827,,,,,
326,23838,,,,,
329,23849,,,,,
327,23861,,,,,
328,23873,,,,,
330,23884,,,,,
328,23896,,,,,
333,23907,,,,,
329,23918,,,,,
334,23929,,,,,
333,23942,,,,,
335,23953,,,,,
340,23964,,,,,
339,23975,,,,,
347,23987,,,,,
346,23998,,,,,
351,24010,,,,,
351,24022,,,,,
351,24033,,,,,
349,24044,,,,,
338,24055,,,,,
334,24067,,,,,
323,24079,,,,,
322,24090,,,,,
318,24101,,,,,
317,24113,,,,,
320,24124,,,,,
317,24135,,,,,
321,24147,,,,,
317,24159,,,,,
322,24170,,,,,
320,24181,,,,,
320,24193,,,,,
323,24204,,,,,
320,24216,,,,,
325,24227,,,,,
320,24239,,,,,
325,24250,,,,,
323,24261,,,,,
323,24273,,,,,
325,24285,,,,,
322,24296,,,,,
328,24307,,,,,
325,24318,,,,,
330,24330,,,,,
327,24342,,,,,
325,24353,,,,,
328,24365,,,,,
322,24376,,,,,
326,24387,,,,,
323,24398,,,,,
327,24411,,,,,
325,24422,,,,,
325,24433,,,,,
328,24444,,,,,
325,24456,,,,,
326,24467,,,,,
319,24479,,,,,
355,24491,,,,,
406,24502,,,,,
403,24513,,,,,
350,24524,,,,,
323,24536,,,,,
329,24548,,,,,
324,24559,,,,,
328,24570,,,,,
327,24582,,,,,
327,24593,,,,,
330,24605,,,,,
327,24616,,,,,
333,24628,,,,,
329,24639,,,,,
335,24650,,,,,
335,24662,,,,,
336,24674,,,,,
342,24685,,,,,
341,24696,,,,,
349,24708,,,,,
347,24719,,,,,
353,24730,,,,,
351,24742,,,,,
348,24754,,,,,
344,24765,,,,,
331,24776,,,,,
328,24787,,,,,
319,24799,,,,,
320,24811,,,,,
317,24822,,,,,
317,24834,,,,,
320,24845,,,,,
316,24856,,,,,
322,24867,,,,,
318,24880,,,,,
323,24891,,,,,
321,24902,,,,,
321,24913,,,,,
324,24925,,,,,
320,24936,,,,,
326,24948,,,,,
321,24960,,,,,
326,24971,,,,,
324,24982,,,,,
324,24993,,,,,
327,25006,,,,,
324,25017,,,,,
330,25028,,,,,
326,25039,,,,,
331,25051,,,,,
329,25062,,,,,
327,25074,,,,,
330,25085,,,,,
324,25097,,,,,
329,25108,,,,,
324,25119,,,,,
328,25131,,,,,
327,25143,,,,,
327,25154,,,,,
329,25165,,,,,
326,25177,,,,,
328,25188,,,,,
319,25199,,,,,
350,25211,,,,,
403,25223,,,,,
403,25234,,,,,
359,25245,,,,,
323,25256,,,,,
331,25268,,,,,
325,25280,,,,,
329,25291,,,,,
327,25303,,,,,
328,25314,,,,,
331,25325,,,,,
329,25337,,,,,
334,25349,,,,,
330,25360,,,,,
335,25371,,,,,
336,25382,,,,,
337,25394,,,,,
343,25406,,,,,
341,25417,,,,,
349,25428,,,,,
348,25440,,,,,
354,25451,,,,,
352,25462,,,,,
349,25475,,,,,
345,25486,,,,,
332,25497,,,,,
329,25508,,,,,
319,25520,,,,,
320,25531,,,,,
317,25543,,,,,
316,25554,,,,,
320,25566,,,,,
316,25577,,,,,
321,25588,,,,,
317,25600,,,,,
321,25612,,,,,
320,25623,,,,,
320,25634,,,,,
323,25646,,,,,
319,25657,,,,,
324,25668,,,,,
320,25680,,,,,
323,25692,,,,,
322,25703,,,,,
321,25714,,,,,
325,25725,,,,,
321,25738,,,,,
328,25749,,,,,
324,25760,,,,,
329,25772,,,,,
326,25783,,,,,
324,25794,,,,,
326,25806,,,,,
321,25818,,,,,
326,25829,,,,,
321,25840,,,,,
325,25851,,,,,
324,25863,,,,,
323,25875,,,,,
326,25886,,,,,
322,25897,,,,,
323,25909,,,,,
318,25920,,,,,
358,25931,,,,,
406,25944,,,,,
402,25955,,,,,
340,25966,,,,,
321,25977,,,,,
327,25989,,,,,
321,26000,,,,,
325,26012,,,,,
324,26023,,,,,
323,26035,,,,,
328,26046,,,,,
325,26057,,,,,
331,26070,,,,,
328,26081,,,,,
332,26092,,,,,
333,26103,,,,,
333,26115,,,,,
339,26126,,,,,
339,26138,,,,,
347,26149,,,,,
345,26161,,,,,
350,26172,,,,,
348,26183,,,,,
344,26194,,,,,
340,26207,,,,,
326,26218,,,,,
324,26229,,,,,
315,26241,,,,,
317,26252,,,,,
315,26263,,,,,
313,26275,,,,,
318,26287,,,,,
314,26298,,,,,
319,26309,,,,,
315,26320,,,,,
319,26332,,,,,
319,26344,,,,,
319,26355,,,,,
322,26366,,,,,
318,26378,,,,,
323,26389,,,,,
320,26400,,,,,
323,26413,,,,,
321,26424,,,,,
321,26435,,,,,
325,26446,,,,,
321,26458,,,,,
328,26470,,,,,
325,26481,,,,,
328,26492,,,,,
326,26504,,,,,
324,26515,,,,,
327,26526,,,,,
321,26539,,,,,
326,26550,,,,,
322,26561,,,,,
325,26572,,,,,
325,26584,,,,,
324,26595,,,,,
328,26607,,,,,
323,26618,,,,,
322,26630,,,,,
327,26641,,,,,
382,26652,,,,,
405,26663,,,,,
398,26676,,,,,
332,26687,,,,,
324,26698,,,,,
329,26710,,,,,
323,26721,,,,,
327,26732,,,,,
327,26744,,,,,
327,26756,,,,,
331,26767,,,,,
327,26778,,,,,
333,26789,,,,,
330,26802,,,,,
336,26813,,,,,
336,26824,,,,,
337,26835,,,,,
344,26847,,,,,
343,26858,,,,,
352,26870,,,,,
349,26882,,,,,
354,26893,,,,,
351,26904,,,,,
345,26915,,,,,
341,26927,,,,,
327,26939,,,,,
325,26950,,,,,
317,26961,,,,,
320,26973,,,,,
318,26984,,,,,
317,26995,,,,,
322,27008,,,,,
317,27019,,,,,
324,27030,,,,,
319,27041,,,,,
323,27053,,,,,
323,27064,,,,,
322,27076,,,,,
326,27087,,,,,
322,27099,,,,,
327,27110,,,,,
323,27121,,,,,
327,27132,,,,,
325,27145,,,,,
325,27156,,,,,
329,27167,,,,,
327,27179,,,,,
333,27190,,,,,
329,27202,,,,,
331,27213,,,,,
329,27225,,,,,
327,27236,,,,,
329,27247,,,,,
325,27258,,,,,
330,27271,,,,,
326,27282,,,,,
329,27293,,,,,
329,27304,,,,,
328,27316,,,,,
331,27327,,,,,
319,27339,,,,,
343,27351,,,,,
394,27362,,,,,
405,27373,,,,,
388,27384,,,,,
329,27396,,,,,
332,27408,,,,,
327,27419,,,,,
331,27430,,,,,
327,27442,,,,,
331,27453,,,,,
331,27464,,,,,
331,27476,,,,,
335,27488,,,,,
332,27499,,,,,
338,27510,,,,,
335,27522,,,,,
340,27534,,,,,
342,27545,,,,,
343,27556,,,,,
350,27568,,,,,
349,27579,,,,,
356,27590,,,,,
352,27602,,,,,
353,27614,,,,,
347,27625,,,,,
336,27636,,,,,
331,27648,,,,,
322,27659,,,,,
323,27671,,,,,
318,27682,,,,,
320,27694,,,,,
320,27705,,,,,
319,27716,,,,,
323,27727,,,,,
320,27740,,,,,
325,27751,,,,,
321,27762,,,,,
324,27773,,,,,
325,27785,,,,,
323,27796,,,,,
327,27808,,,,,
323,27820,,,,,
328,27831,,,,,
324,27842,,,,,
327,27853,,,,,
326,27865,,,,,
325,27877,,,,,
329,27888,,,,,
325,27899,,,,,
330,27911,,,,,
328,27922,,,,,
332,27934,,,,,
333,27945,,,,,
330,27957,,,,,
332,27968,,,,,
328,27979,,,,,
331,27991,,,,,
326,28003,,,,,
329,28014,,,,,
329,28025,,,,,
327,28037,,,,,
332,28048,,,,,
328,28059,,,,,
333,28071,,,,,
324,28083,,,,,
325,28094,,,,,
361,28105,,,,,
404,28116,,,,,
405,28128,,,,,
349,28140,,,,,
331,28151,,,,,
328,28163,,,,,
329,28174,,,,,
329,28185,,,,,
327,28196,,,,,
332,28209,,,,,
328,28220,,,,,
334,28231,,,,,
330,28242,,,,,
334,28254,,,,,
336,28266,,,,,
335,28277,,,,,
341,28289,,,,,
339,28300,,,,,
347,28311,,,,,
346,28322,,,,,
351,28335,,,,,
353,28346,,,,,
351,28357,,,,,
352,28368,,,,,
341,28380,,,,,
337,28391,,,,,
325,28403,,,,,
322,28414,,,,,
319,28426,,,,,
316,28437,,,,,
320,28448,,,,,
316,28460,,,,,
321,28472,,,,,
318,28483,,,,,
321,28494,,,,,
322,28506,,,,,
320,28517,,,,,
324,28528,,,,,
320,28540,,,,,
325,28552,,,,,
321,28563,,,,,
324,28574,,,,,
324,28585,,,,,
322,28597,,,,,
325,28609,,,,,
321,28620,,,,,
327,28632,,,,,
323,28643,,,,,
326,28654,,,,,
328,28666,,,,,
327,28678,,,,,
332,28689,,,,,
326,28700,,,,,
330,28711,,,,,
325,28723,,,,,
326,28735,,,,,
327,28746,,,,,
324,28758,,,,,
328,28769,,,,,
324,28780,,,,,
329,28791,,,,,
325,28804,,,,,
328,28815,,,,,
324,28826,,,,,
322,28837,,,,,
364,28849,,,,,
403,28860,,,,,
405,28872,,,,,
339,28883,,,,,
327,28895,,,,,
329,28906,,,,,
325,28917,,,,,
329,28929,,,,,
325,28941,,,,,
331,28952,,,,,
328,28963,,,,,
331,28975,,,,,
333,28986,,,,,
331,28998,,,,,
336,29009,,,,,
333,29021,,,,,
340,29032,,,,,
339,29043,,,,,
344,29054,,,,,
348,29067,,,,,
348,29078,,,,,
353,29089,,,,,
349,29101,,,,,
351,29112,,,,,
340,29123,,,,,
334,29135,,,,,
327,29147,,,,,
319,29158,,,,,
321,29169,,,,,
315,29180,,,,,
320,29192,,,,,
317,29204,,,,,
319,29215,,,,,
320,29227,,,,,
319,29238,,,,,
323,29249,,,,,
319,29260,,,,,
324,29273,,,,,
321,29284,,,,,
323,29295,,,,,
324,29306,,,,,
321,29318,,,,,
325,29329,,,,,
322,29341,,,,,
326,29352,,,,,
323,29364,,,,,
325,29375,,,,,
327,29386,,,,,
325,29399,,,,,
331,29410,,,,,
328,29421,,,,,
333,29432,,,,,
327,29444,,,,,
329,29455,,,,,
328,29467,,,,,
324,29478,,,,,
328,29490,,,,,
324,29501,,,,,
328,29512,,,,,
325,29523,,,,,
327,29536,,,,,
328,29547,,,,,
326,29558,,,,,
324,29570,,,,,
324,29581,,,,,
372,29592,,,,,
403,29604,,,,,
402,29616,,,,,
338,29627,,,,,
325,29638,,,,,
329,29649,,,,,
323,29661,,,,,
328,29673,,,,,
325,29684,,,,,
328,29696,,,,,
329,29707,,,,,
328,29718,,,,,
333,29730,,,,,
330,29742,,,,,
336,29753,,,,,
334,29764,,,,,
337,29775,,,,,
341,29787,,,,,
342,29799,,,,,
350,29810,,,,,
347,29821,,,,,
354,29833,,,,,
350,29844,,,,,
348,29855,,,,,
342,29868,,,,,
331,29879,,,,,
327,29890,,,,,
318,29901,,,,,
320,29913,,,,,
316,29924,,,,,
317,29936,,,,,
319,29947,,,,,
317,29959,,,,,
322,29970,,,,,
318,29981,,,,,
323,29992,,,,,
320,30005,,,,,
321,30016,,,,,
323,30027,,,,,
320,30039,,,,,
324,30050,,,,,
320,30061,,,,,
324,30073,,,,,
322,30085,,,,,
323,30096,,,,,
325,30107,,,,,
322,30118,,,,,
327,30131,,,,,
324,30142,,,,,
329,30153,,,,,
327,30164,,,,,
329,30176,,,,,
330,30187,,,,,
325,30199,,,,,
329,30211,,,,,
323,30222,,,,,
327,30233,,,,,
324,30244,,,,,
326,30256,,,,,
327,30268,,,,,
324,30279,,,,,
329,30290,,,,,
325,30302,,,,,
326,30313,,,,,
321,30324,,,,,
356,30337,,,,,
406,30348,,,,,
401,30359,,,,,
346,30370,,,,,
323,30382,,,,,
329,30393,,,,,
325,30405,,,,,
326,30416,,,,,
328,30428,,,,,
326,30439,,,,,
331,30450,,,,,
328,30462,,,,,
333,30474,,,,,
330,30485,,,,,
333,30496,,,,,
336,30508,,,,,
335,30519,,,,,
342,30531,,,,,
341,30542,,,,,
348,30554,,,,,
348,30565,,,,,
351,30576,,,,,
353,30587,,,,,
347,30600,,,,,
345,30611,,,,,
332,30622,,,,,
328,30633,,,,,
320,30645,,,,,
318,30656,,,,,
318,30668,,,,,
315,30680,,,,,
320,30691,,,,,
316,30702,,,,,
321,30713,,,,,
319,30725,,,,,
320,30737,,,,,
322,30748,,,,,
319,30759,,,,,
324,30771,,,,,
320,30782,,,,,
324,30793,,,,,
321,30806,,,,,
322,30817,,,,,
324,30828,,,,,
321,30839,,,,,
326,30851,,,,,
323,30863,,,,,
329,30874,,,,,
327,30885,,,,,
327,30897,,,,,
327,30908,,,,,
323,30919,,,,,
326,30931,,,,,
322,30943,,,,,
326,30954,,,,,
323,30965,,,,,
324,30977,,,,,
326,30988,,,,,
323,31000,,,,,
327,31011,,,,,
317,31023,,,,,
329,31034,,,,,
373,31045,,,,,
404,31056,,,,,
394,31069,,,,,
324,31080,,,,,
326,31091,,,,,
323,31102,,,,,
327,31114,,,,,
323,31125,,,,,
325,31137,,,,,
327,31149,,,,,
325,31160,,,,,
330,31171,,,,,
327,31182,,,,,
332,31195,,,,,
331,31206,,,,,
334,31217,,,,,
337,31228,,,,,
338,31240,,,,,
345,31251,,,,,
344,31263,,,,,
350,31275,,,,,
348,31286,,,,,
349,31297,,,,,
346,31308,,,,,
335,31320,,,,,
331,31332,,,,,
320,31343,,,,,
321,31354,,,,,
317,31366,,,,,
317,31377,,,,,
319,31388,,,,,
317,31400,,,,,
321,31412,,,,,
318,31423,,,,,
323,31434,,,,,
320,31446,,,,,
322,31457,,,,,
323,31469,,,,,
321,31480,,,,,
325,31492,,,,,
321,31503,,,,,
326,31514,,,,,
323,31525,,,,,
324,31538,,,,,
327,31549,,,,,
326,31560,,,,,
332,31571,,,,,
326,31583,,,,,
329,31595,,,,,
326,31606,,,,,
325,31618,,,,,
326,31629,,,,,
324,31640,,,,,
328,31651,,,,,
324,31664,,,,,
329,31675,,,,,
326,31686,,,,,
327,31697,,,,,
325,31709,,,,,
321,31720,,,,,
359,31732,,,,,
403,31744,,,,,
405,31755,,,,,
341,31766,,,,,
326,31777,,,,,
328,31789,,,,,
325,31801,,,,,
329,31812,,,,,
325,31823,,,,,
331,31835,,,,,
328,31846,,,,,
330,31857,,,,,
332,31869,,,,,
330,31881,,,,,
336,31892,,,,,
333,31903,,,,,
340,31915,,,,,
339,31927,,,,,
344,31938,,,,,
348,31949,,,,,
347,31961,,,,,
353,31972,,,,,
349,31983,,,,,
350,31995,,,,,
340,32007,,,,,
332,32018,,,,,
327,32029,,,,,
320,32040,,,,,
321,32052,,,,,
316,32064,,,,,
321,32075,,,,,
317,32087,,,,,
319,32098,,,,,
321,32109,,,,,
319,32120,,,,,
323,32133,,,,,
320,32144,,,,,
325,32155,,,,,
322,32166,,,,,
323,32178,,,,,
325,32189,,,,,
322,32201,,,,,
326,32212,,,,,
321,32224,,,,,
326,32235,,,,,
325,32246,,,,,
328,32258,,,,,
330,32270,,,,,
326,32281,,,,,
329,32292,,,,,
325,32304,,,,,
327,32315,,,,,
324,32327,,,,,
325,32338,,,,,
327,32350,,,,,
325,32361,,,,,
329,32372,,,,,
325,32384,,,,,
329,32396,,,,,
321,32407,,,,,
324,32418,,,,,
365,32430,,,,,
403,32441,,,,,
405,32452,,,,,
334,32464,,,,,
329,32476,,,,,
326,32487,,,,,
327,32498,,,,,
327,32509,,,,,
325,32521,,,,,
330,32533,,,,,
327,32544,,,,,
332,32556,,,,,
330,32567,,,,,
332,32578,,,,,
335,32589,,,,,
334,32602,,,,,
340,32613,,,,,
338,32624,,,,,
346,32635,,,,,
346,32647,,,,,
349,32659,,,,,
351,32670,,,,,
348,32681,,,,,
349,32693,,,,,
337,32704,,,,,
333,32715,,,,,
323,32728,,,,,
320,32739,,,,,
319,32750,,,,,
316,32761,,,,,
320,32773,,,,,
316,32784,,,,,
321,32796,,,,,
319,32807,,,,,
321,32819,,,,,
322,32830,,,,,
320,32841,,,,,
324,32852,,,,,
320,32865,,,,,
325,32876,,,,,
322,32887,,,,,
324,32899,,,,,
325,32910,,,,,
322,32921,,,,,
327,32933,,,,,
322,32945,,,,,
328,32956,,,,,
326,32967,,,,,
329,32978,,,,,
331,32990,,,,,
326,33002,,,,,
330,33013,,,,,
324,33025,,,,,
327,33036,,,,,
324,33047,,,,,
325,33059,,,,,
327,33071,,,,,
325,33082,,,,,
329,33093,,,,,
325,33104,,,,,
329,33116,,,,,
319,33128,,,,,
333,33139,,,,,
385,33150,,,,,
402,33162,,,,,
394,33173,,,,,
325,33184,,,,,
329,33197,,,,,
326,33208,,,,,
326,33219,,,,,
327,33230,,,,,
325,33242,,,,,
330,33253,,,,,
327,33265,,,,,
332,33276,,,,,
330,33288,,,,,
333,33299,,,,,
335,33310,,,,,
334,33321,,,,,
341,33334,,,,,
339,33345,,,,,
346,33356,,,,,
346,33368,,,,,
349,33379,,,,,
351,33391,,,,,
348,33402,,,,,
347,33414,,,,,
335,33425,,,,,
331,33436,,,,,
322,33447,,,,,
319,33460,,,,,
319,33471,,,,,
315,33482,,,,,
320,33494,,,,,
316,33505,,,,,
321,33516,,,,,
318,33528,,,,,
320,33540,,,,,
322,33551,,,,,
319,33562,,,,,
324,33573,,,,,
320,33585,,,,,
325,33597,,,,,
321,33608,,,,,
323,33619,,,,,
325,33631,,,,,
322,33642,,,,,
326,33653,,,,,
322,33666,,,,,
327,33677,,,,,
325,33688,,,,,
328,33699,,,,,
330,33711,,,,,
327,33722,,,,,
329,33734,,,,,
325,33745,,,,,
327,33757,,,,,
324,33768,,,,,
325,33779,,,,,
326,33792,,,,,
324,33803,,,,,
329,33814,,,,,
324,33825,,,,,
329,33837,,,,,
324,33848,,,,,
321,33860,,,,,
348,33871,,,,,
401,33883,,,,,
405,33894,,,,,
355,33905,,,,,
328,33916,,,,,
326,33929,,,,,
326,33940,,,,,
327,33951,,,,,
325,33963,,,,,
330,33974,,,,,
326,33985,,,,,
332,33997,,,,,
329,34009,,,,,
332,34020,,,,,
334,34031,,,,,
333,34042,,,,,
340,34054,,,,,
337,34066,,,,,
344,34077,,,,,
345,34088,,,,,
349,34100,,,,,
352,34111,,,,,
350,34123,,,,,
352,34135,,,,,
342,34146,,,,,
338,34157,,,,,
327,34168,,,,,
322,34180,,,,,
320,34192,,,,,
316,34203,,,,,
320,34214,,,,,
316,34226,,,,,
321,34237,,,,,
319,34248,,,,,
321,34260,,,,,
322,34272,,,,,
320,34283,,,,,
325,34294,,,,,
321,34306,,,,,
325,34317,,,,,
323,34329,,,,,
324,34340,,,,,
325,34352,,,,,
323,34363,,,,,
327,34374,,,,,
323,34385,,,,,
328,34398,,,,,
325,34409,,,,,
327,34420,,,,,
330,34432,,,,,
329,34443,,,,,
333,34454,,,,,
327,34466,,,,,
331,34478,,,,,
326,34489,,,,,
327,34500,,,,,
327,34511,,,,,
325,34524,,,,,
329,34535,,,,,
325,34546,,,,,
330,34557,,,,,
326,34569,,,,,
328,34580,,,,,
323,34592,,,,,
327,34604,,,,,
376,34615,,,,,
402,34626,,,,,
403,34637,,,,,
331,34649,,,,,
328,34661,,,,,
329,34672,,,,,
326,34683,,,,,
330,34695,,,,,
326,34706,,,,,
331,34717,,,,,
329,34729,,,,,
331,34741,,,,,
333,34752,,,,,
332,34763,,,,,
337,34775,,,,,
335,34786,,,,,
341,34798,,,,,
341,34809,,,,,
346,34821,,,,,
349,34832,,,,,
349,34843,,,,,
355,34855,,,,,
349,34867,,,,,
350,34878,,,,,
339,34889,,,,,
332,34900,,,,,
326,34912,,,,,
318,34924,,,,,
320,34935,,,,,
316,34947,,,,,
320,34958,,,,,
318,34969,,,,,
319,34980,,,,,
321,34993,,,,,
319,35004,,,,,
323,35015,,,,,
319,35026,,,,,
324,35038,,,,,
321,35049,,,,,
323,35061,,,,,
324,35073,,,,,
321,35084,,,,,
325,35095,,,,,
321,35106,,,,,
325,35118,,,,,
323,35130,,,,,
326,35141,,,,,
329,35152,,,,,
326,35164,,,,,
330,35175,,,,,
324,35186,,,,,
328,35198,,,,,
323,35210,,,,,
324,35221,,,,,
326,35232,,,,,
323,35244,,,,,
327,35256,,,,,
323,35267,,,,,
328,35278,,,,,
325,35290,,,,,
323,35301,,,,,
321,35312,,,,,
350,35324,,,,,
408,35336,,,,,
401,35347,,,,,
348,35358,,,,,
323,35369,,,,,
326,35381,,,,,
325,35393,,,,,
323,35404,,,,,
328,35416,,,,,
324,35427,,,,,
329,35438,,,,,
327,35449,,,,,
330,35462,,,,,
331,35473,,,,,
329,35484,,,,,
336,35495,,,,,
333,35507,,,,,
340,35518,,,,,
341,35530,,,,,
345,35542,,,,,
349,35553,,,,,
347,35564,,,,,
351,35575,,,,,
344,35588,,,,,
342,35599,,,,,
330,35610,,,,,
324,35621,,,,,
320,35633,,,,,
315,35644,,,,,
318,35656,,,,,
314,35667,,,,,
319,35679,,,,,
316,35690,,,,,
318,35701,,,,,
319,35713,,,,,
317,35725,,,,,
322,35736,,,,,
319,35747,,,,,
323,35759,,,,,
320,35770,,,,,
322,35781,,,,,
322,35793,,,,,
320,35805,,,,,
324,35816,,,,,
320,35827,,,,,
326,35838,,,,,
325,35850,,,,,
327,35862,,,,,
328,35873,,,,,
324,35885,,,,,
328,35896,,,,,
322,35907,,,,,
326,35918,,,,,
322,35931,,,,,
324,35942,,,,,
325,35953,,,,,
323,35964,,,,,
327,35976,,,,,
323,35988,,,,,
327,35999,,,,,
317,36011,,,,,
333,36022,,,,,
387,36033,,,,,
402,36044,,,,,
389,36057,,,,,
324,36068,,,,,
328,36079,,,,,
324,36090,,,,,
325,36102,,,,,
326,36113,,,,,
324,36125,,,,,
329,36136,,,,,
326,36148,,,,,
331,36159,,,,,
329,36170,,,,,
332,36182,,,,,
334,36194,,,,,
334,36205,,,,,
339,36216,,,,,
339,36228,,,,,
346,36239,,,,,
346,36250,,,,,
349,36262,,,,,
351,36274,,,,,
347,36285,,,,,
346,36296,,,,,
334,36307,,,,,
330,36320,,,,,
320,36331,,,,,
318,36342,,,,,
318,36354,,,,,
315,36365,,,,,
319,36376,,,,,
315,36388,,,,,
320,36400,,,,,
317,36411,,,,,
319,36422,,,,,
321,36433,,,,,
319,36445,,,,,
323,36457,,,,,
320,36468,,,,,
324,36480,,,,,
321,36491,,,,,
323,36502,,,,,
324,36513,,,,,
321,36526,,,,,
325,36537,,,,,
321,36548,,,,,
326,36559,,,,,
324,36571,,,,,
327,36582,,,,,
330,36594,,,,,
327,36605,,,,,
330,36617,,,,,
325,36628,,,,,
328,36639,,,,,
323,36651,,,,,
325,36663,,,,,
327,36674,,,,,
324,36685,,,,,
328,36697,,,,,
325,36708,,,,,
329,36720,,,,,
325,36731,,,,,
320,36743,,,,,
343,36754,,,,,
401,36765,,,,,
406,36776,,,,,
381,36789,,,,,
330,36800,,,,,
326,36811,,,,,
326,36823,,,,,
327,36834,,,,,
324,36845,,,,,
329,36857,,,,,
326,36869,,,,,
331,36880,,,,,
329,36891,,,,,
332,36902,,,,,
334,36914,,,,,
333,36926,,,,,
339,36937,,,,,
337,36948,,,,,
345,36960,,,,,
345,36971,,,,,
349,36982,,,,,
352,36995,,,,,
350,37006,,,,,
352,37017,,,,,
342,37028,,,,,
338,37040,,,,,
326,37052,,,,,
322,37063,,,,,
319,37074,,,,,
315,37086,,,,,
319,37097,,,,,
315,37108,,,,,
320,37121,,,,,
318,37132,,,,,
320,37143,,,,,
322,37154,,,,,
319,37166,,,,,
323,37177,,,,,
319,37189,,,,,
324,37200,,,,,
321,37212,,,,,
322,37223,,,,,
324,37234,,,,,
321,37245,,,,,
325,37258,,,,,
321,37269,,,,,
325,37280,,,,,
323,37292,,,,,
325,37303,,,,,
327,37314,,,,,
326,37326,,,,,
332,37338,,,,,
327,37349,,,,,
330,37360,,,,,
326,37371,,,,,
326,37383,,,,,
326,37395,,,,,
324,37406,,,,,
328,37417,,,,,
324,37429,,,,,
329,37440,,,,,
325,37452,,,,,
328,37464,,,,,
326,37475,,,,,
318,37486,,,,,
349,37497,,,,,
403,37509,,,,,
405,37521,,,,,
377,37532,,,,,
329,37543,,,,,
329,37555,,,,,
324,37566,,,,,
328,37577,,,,,
324,37590,,,,,
330,37601,,,,,
327,37612,,,,,
329,37623,,,,,
331,37635,,,,,
330,37646,,,,,
335,37658,,,,,
332,37669,,,,,
339,37681,,,,,
338,37692,,,,,
343,37703,,,,,
347,37714,,,,,
347,37727,,,,,
352,37738,,,,,
349,37749,,,,,
351,37761,,,,,
342,37772,,,,,
335,37784,,,,,
328,37795,,,,,
319,37807,,,,,
320,37818,,,,,
314,37829,,,,,
318,37840,,,,,
316,37853,,,,,
318,37864,,,,,
320,37875,,,,,
318,37886,,,,,
322,37898,,,,,
318,37909,,,,,
323,37921,,,,,
320,37933,,,,,
321,37944,,,,,
323,37955,,,,,
320,37966,,,,,
324,37978,,,,,
320,37990,,,,,
325,38001,,,,,
322,38012,,,,,
323,38024,,,,,
325,38035,,,,,
323,38046,,,,,
326,38059,,,,,
323,38070,,,,,
330,38081,,,,,
328,38092,,,,,
330,38104,,,,,
329,38115,,,,,
326,38127,,,,,
329,38138,,,,,
323,38150,,,,,
328,38161,,,,,
325,38172,,,,,
326,38184,,,,,
327,38196,,,,,
325,38207,,,,,
329,38218,,,,,
325,38230,,,,,
323,38241,,,,,
326,38253,,,,,
371,38264,,,,,
405,38276,,,,,
399,38287,,,,,
333,38298,,,,,
324,38309,,,,,
329,38322,,,,,
325,38333,,,,,
326,38344,,,,,
327,38355,,,,,
325,38367,,,,,
331,38378,,,,,
327,38390,,,,,
332,38402,,,,,
330,38413,,,,,
333,38424,,,,,
335,38435,,,,,
335,38447,,,,,
341,38459,,,,,
340,38470,,,,,
347,38481,,,,,
347,38493,,,,,
349,38504,,,,,
349,38516,,,,,
344,38528,,,,,
342,38539,,,,,
329,38550,,,,,
326,38561,,,,,
318,38573,,,,,
317,38585,,,,,
317,38596,,,,,
315,38607,,,,,
319,38619,,,,,
315,38630,,,,,
321,38641,,,,,
318,38653,,,,,
319,38665,,,,,
322,38676,,,,,
319,38687,,,,,
323,38699,,,,,
319,38710,,,,,
323,38722,,,,,
320,38733,,,,,
321,38745,,,,,
323,38756,,,,,
320,38767,,,,,
324,38778,,,,,
320,38791,,,,,
325,38802,,,,,
323,38813,,,,,
326,38824,,,,,
328,38836,,,,,
326,38847,,,,,
328,38859,,,,,
323,38871,,,,,
326,38882,,,,,
322,38893,,,,,
323,38904,,,,,
325,38917,,,,,
323,38928,,,,,
326,38939,,,,,
323,38950,,,,,
327,38962,,,,,
323,38973,,,,,
319,38985,,,,,
333,38996,,,,,
377,39008,,,,,
406,39019,,,,,
376,39030,,,,,
325,39042,,,,,
324,39054,,,,,
325,39065,,,,,
326,39076,,,,,
324,39088,,,,,
328,39099,,,,,
325,39110,,,,,
330,39122,,,,,
328,39134,,,,,
330,39145,,,,,
333,39156,,,,,
331,39168,,,,,
337,39179,,,,,
335,39191,,,,,
341,39202,,,,,
342,39214,,,,,
345,39225,,,,,
349,39236,,,,,
347,39248,,,,,
350,39260,,,,,
342,39271,,,,,
339,39282,,,,,
328,39293,,,,,
323,39305,,,,,
320,39317,,,,,
316,39328,,,,,
319,39340,,,,,
315,39351,,,,,
319,39362,,,,,
317,39373,,,,,
319,39386,,,,,
321,39397,,,,,
319,39408,,,,,
323,39419,,,,,
319,39431,,,,,
324,39442,,,,,
321,39454,,,,,
322,39465,,,,,
323,39477,,,,,
321,39488,,,,,
325,39499,,,,,
322,39511,,,,,
326,39523,,,,,
324,39534,,,,,
326,39545,,,,,
330,39557,,,,,
328,39568,,,,,
330,39579,,,,,
325,39591,,,,,
328,39603,,,,,
324,39614,,,,,
325,39625,,,,,
327,39636,,,,,
324,39649,,,,,
328,39660,,,,,
324,39671,,,,,
328,39683,,,,,
325,39694,,,,,
322,39705,,,,,
328,39717,,,,,
367,39729,,,,,
406,39740,,,,,
398,39751,,,,,
331,39762,,,,,
325,39774,,,,,
327,39786,,,,,
328,39797,,,,,
325,39809,,,,,
330,39820,,,,,
327,39831,,,,,
332,39842,,,,,
330,39855,,,,,
332,39866,,,,,
334,39877,,,,,
332,39888,,,,,
338,39900,,,,,
337,39911,,,,,
343,39923,,,,,
344,39934,,,,,
347,39946,,,,,
351,39957,,,,,
349,39968,,,,,
353,39981,,,,,
345,39992,,,,,
342,40003,,,,,
331,40014,,,,,
326,40026,,,,,
323,40037,,,,,
318,40049,,,,,
321,40060,,,,,
317,40072,,,,,
322,40083,,,,,
320,40094,,,,,
321,40105,,,,,
323,40118,,,,,
321,40129,,,,,
325,40140,,,,,
322,40152,,,,,
326,40163,,,,,
324,40174,,,,,
325,40186,,,,,
326,40198,,,,,
323,40209,,,,,
328,40220,,,,,
324,40231,,,,,
328,40243,,,,,
327,40255,,,,,
329,40266,,,,,
332,40278,,,,,
328,40289,,,,,
331,40300,,,,,
326,40311,,,,,
328,40324,,,,,
325,40335,,,,,
327,40346,,,,,
328,40357,,,,,
325,40369,,,,,
329,40381,,,,,
325,40392,,,,,
330,40403,,,,,
323,40415,,,,,
323,40426,,,,,
354,40437,,,,,
403,40450,,,,,
405,40461,,,,,
345,40472,,,,,
328,40483,,,,,
326,40495,,,,,
328,40506,,,,,
328,40518,,,,,
326,40529,,,,,
331,40541,,,,,
327,40552,,,,,
332,40563,,,,,
330,40574,,,,,
333,40587,,,,,
335,40598,,,,,
335,40609,,,,,
340,40621,,,,,
338,40632,,,,,
345,40643,,,,,
345,40655,,,,,
350,40667,,,,,
352,40678,,,,,
349,40689,,,,,
351,40700,,,,,
340,40713,,,,,
337,40724,,,,,
326,40735,,,,,
323,40747,,,,,
321,40758,,,,,
317,40769,,,,,
321,40781,,,,,
317,40793,,,,,
322,40804,,,,,
320,40815,,,,,
320,40826,,,,,
323,40838,,,,,
320,40850,,,,,
325,40861,,,,,
322,40872,,,,,
325,40884,,,,,
323,40895,,,,,
323,40906,,,,,
325,40919,,,,,
323,40930,,,,,
326,40941,,,,,
323,40952,,,,,
327,40964,,,,,
326,40975,,,,,
329,40987,,,,,
331,40998,,,,,
327,41010,,,,,
329,41021,,,,,
324,41032,,,,,
327,41043,,,,,
323,41056,,,,,
325,41067,,,,,
326,41078,,,,,
324,41090,,,,,
327,41101,,,,,
324,41113,,,,,
328,41124,,,,,
321,41136,,,,,
323,41147,,,,,
361,41158,,,,,
403,41169,,,,,
405,41182,,,,,
334,41193,,,,,
326,41204,,,,,
325,41216,,,,,
325,41227,,,,,
327,41238,,,,,
324,41250,,,,,
329,41262,,,,,
326,41273,,,,,
330,41284,,,,,
329,41295,,,,,
331,41307,,,,,
333,41319,,,,,
332,41330,,,,,
338,41341,,,,,
337,41353,,,,,
344,41364,,,,,
344,41375,,,,,
347,41388,,,,,
350,41399,,,,,
348,41410,,,,,
349,41421,,,,,
339,41433,,,,,
334,41445,,,,,
324,41456,,,,,
320,41467,,,,,
319,41479,,,,,
315,41490,,,,,
319,41501,,,,,
315,41513,,,,,
319,41525,,,,,
318,41536,,,,,
319,41547,,,,,
321,41559,,,,,
319,41570,,,,,
323,41582,,,,,
319,41593,,,,,
324,41605,,,,,
321,41616,,,,,
323,41627,,,,,
324,41638,,,,,
321,41651,,,,,
325,41662,,,,,
321,41673,,,,,
325,41684,,,,,
324,41696,,,,,
325,41707,,,,,
328,41719,,,,,
328,41731,,,,,
331,41742,,,,,
326,41753,,,,,
329,41764,,,,,
325,41776,,,,,
325,41788,,,,,
326,41799,,,,,
324,41810,,,,,
328,41822,,,,,
324,41833,,,,,
329,41845,,,,,
326,41857,,,,,
327,41868,,,,,
321,41879,,,,,
333,41890,,,,,
388,41902,,,,,
402,41914,,,,,
387,41925,,,,,
326,41936,,,,,
327,41948,,,,,
328,41959,,,,,
325,41970,,,,,
329,41982,,,,,
326,41994,,,,,
331,42005,,,,,
329,42016,,,,,
330,42028,,,,,
333,42039,,,,,
332,42051,,,,,
337,42062,,,,,
335,42074,,,,,
341,42085,,,,,
340,42096,,,,,
345,42107,,,,,
349,42120,,,,,
349,42131,,,,,
354,42142,,,,,
349,42153,,,,,
349,42165,,,,,
338,42177,,,,,
332,42188,,,,,
325,42200,,,,,
319,42211,,,,,
320,42222,,,,,
315,42233,,,,,
320,42246,,,,,
317,42257,,,,,
319,42268,,,,,
321,42279,,,,,
319,42291,,,,,
323,42302,,,,,
319,42314,,,,,
324,42326,,,,,
321,42337,,,,,
323,42348,,,,,
324,42359,,,,,
322,42371,,,,,
325,42383,,,,,
321,42394,,,,,
326,42405,,,,,
322,42417,,,,,
325,42428,,,,,
326,42439,,,,,
325,42451,,,,,
331,42463,,,,,
327,42474,,,,,
331,42485,,,,,
326,42497,,,,,
328,42508,,,,,
326,42520,,,,,
324,42531,,,,,
328,42543,,,,,
324,42554,,,,,
328,42565,,,,,
325,42577,,,,,
327,42589,,,,,
328,42600,,,,,
323,42611,,,,,
323,42622,,,,,
348,42634,,,,,
406,42646,,,,,
401,42657,,,,,
348,42669,,,,,
325,42680,,,,,
326,42691,,,,,
329,42702,,,,,
324,42715,,,,,
329,42726,,,,,
326,42737,,,,,
329,42748,,,,,
330,42760,,,,,
329,42771,,,,,
334,42783,,,,,
330,42795,,,,,
337,42806,,,,,
335,42817,,,,,
339,42828,,,,,
343,42840,,,,,
344,42852,,,,,
351,42863,,,,,
348,42874,,,,,
353,42886,,,,,
348,42897,,,,,
344,42909,,,,,
336,42920,,,,,
326,42932,,,,,
323,42943,,,,,
315,42954,,,,,
319,42966,,,,,
315,42978,,,,,
318,42989,,,,,
318,43000,,,,,
317,43012,,,,,
321,43023,,,,,
317,43034,,,,,
323,43046,,,,,
319,43058,,,,,
322,43069,,,,,
322,43080,,,,,
320,43091,,,,,
324,43103,,,,,
320,43115,,,,,
325,43126,,,,,
322,43138,,,,,
325,43149,,,,,
326,43160,,,,,
326,43171,,,,,
329,43184,,,,,
323,43195,,,,,
327,43206,,,,,
322,43217,,,,,
323,43229,,,,,
323,43240,,,,,
321,43252,,,,,
325,43264,,,,,
321,43275,,,,,
326,43286,,,,,
322,43297,,,,,
323,43310,,,,,
318,43321,,,,,
334,43332,,,,,
391,43343,,,,,
400,43355,,,,,
372,43366,,,,,
321,43378,,,,,
325,43389,,,,,
325,43401,,,,,
323,43412,,,,,
327,43423,,,,,
323,43435,,,,,
329,43447,,,,,
326,43458,,,,,
329,43469,,,,,
330,43481,,,,,
330,43492,,,,,
335,43503,,,,,
333,43515,,,,,
339,43527,,,,,
339,43538,,,,,
344,43549,,,,,
347,43560,,,,,
348,43572,,,,,
352,43584,,,,,
347,43595,,,,,
346,43607,,,,,
334,43618,,,,,
327,43629,,,,,
322,43641,,,,,
317,43653,,,,,
319,43664,,,,,
314,43675,,,,,
319,43686,,,,,
316,43698,,,,,
319,43710,,,,,
320,43721,,,,,
319,43732,,,,,
323,43744,,,,,
319,43755,,,,,
324,43766,,,,,
321,43779,,,,,
324,43790,,,,,
324,43801,,,,,
322,43812,,,,,
326,43824,,,,,
322,43835,,,,,
327,43847,,,,,
325,43858,,,,,
328,43870,,,,,
330,43881,,,,,
327,43892,,,,,
329,43904,,,,,
325,43916,,,,,
327,43927,,,,,
324,43938,,,,,
326,43950,,,,,
327,43961,,,,,
325,43972,,,,,
329,43984,,,,,
324,43996,,,,,
329,44007,,,,,
324,44018,,,,,
322,44029,,,,,
351,44042,,,,,
404,44053,,,,,
405,44064,,,,,
350,44076,,,,,
328,44087,,,,,
326,44098,,,,,
327,44110,,,,,
327,44122,,,,,
325,44133,,,,,
329,44144,,,,,
327,44155,,,,,
333,44167,,,,,
330,44179,,,,,
333,44190,,,,,
335,44201,,,,,
334,44213,,,,,
340,44224,,,,,
338,44235,,,,,
346,44248,,,,,
346,44259,,,,,
351,44270,,,,,
353,44281,,,,,
351,44293,,,,,
352,44304,,,,,
341,44316,,,,,
337,44327,,,,,
326,44339,,,,,
323,44350,,,,,
320,44361,,,,,
317,44374,,,,,
321,44385,,,,,
317,44396,,,,,
322,44407,,,,,
319,44419,,,,,
322,44430,,,,,
323,44442,,,,,
321,44453,,,,,
325,44465,,,,,
322,44476,,,,,
327,44487,,,,,
323,44498,,,,,
325,44511,,,,,
326,44522,,,,,
324,44533,,,,,
328,44545,,,,,
324,44556,,,,,
330,44567,,,,,
328,44579,,,,,
331,44591,,,,,
331,44602,,,,,
327,44613,,,,,
330,44624,,,,,
324,44636,,,,,
328,44648,,,,,
325,44659,,,,,
327,44670,,,,,
328,44682,,,,,
326,44693,,,,,
330,44704,,,,,
326,44717,,,,,
327,44728,,,,,
321,44739,,,,,
351,44750,,,,,
407,44762,,,,,
402,44774,,,,,
355,44785,,,,,
324,44796,,,,,
329,44808,,,,,
325,44819,,,,,
327,44830,,,,,
328,44843,,,,,
327,44854,,,,,
331,44865,,,,,
328,44876,,,,,
333,44888,,,,,
331,44899,,,,,
334,44911,,,,,
336,44922,,,,,
336,44934,,,,,
342,44945,,,,,
341,44956,,,,,
349,44967,,,,,
349,44980,,,,,
352,44991,,,,,
353,45002,,,,,
348,45014,,,,,
345,45025,,,,,
332,45036,,,,,
329,45048,,,,,
320,45060,,,,,
319,45071,,,,,
318,45082,,,,,
316,45093,,,,,
320,45106,,,,,
316,45117,,,,,
321,45128,,,,,
319,45139,,,,,
321,45151,,,,,
322,45162,,,,,
320,45174,,,,,
324,45186,,,,,
320,45197,,,,,
325,45208,,,,,
321,45219,,,,,
323,45231,,,,,
324,45243,,,,,
322,45254,,,,,
326,45265,,,,,
323,45277,,,,,
328,45288,,,,,
326,45299,,,,,
329,45312,,,,,
331,45323,,,,,
327,45334,,,,,
330,45345,,,,,
325,45357,,,,,
327,45368,,,,,
325,45380,,,,,
326,45391,,,,,
328,45403,,,,,
325,45414,,,,,
329,45425,,,,,
325,45436,,,,,
330,45449,,,,,
322,45460,,,,,
325,45471,,,,,
362,45483,,,,,
404,45494,,,,,
406,45506,,,,,
338,45517,,,,,
328,45529,,,,,
327,45540,,,,,
327,45551,,,,,
328,45562,,,,,
326,45575,,,,,
331,45586,,,,,
328,45597,,,,,
333,45608,,,,,
331,45620,,,,,
333,45631,,,,,
335,45643,,,,,
334,45655,,,,,
340,45666,,,,,
339,45677,,,,,
347,45688,,,,,
346,45700,,,,,
351,45712,,,,,
354,45723,,,,,
351,45734,,,,,
352,45746,,,,,
340,45757,,,,,
336,45768,,,,,
325,45780,,,,,
321,45792,,,,,
320,45803,,,,,
316,45814,,,,,
320,45826,,,,,
316,45838,,,,,
321,45849,,,,,
319,45860,,,,,
320,45872,,,,,
322,45883,,,,,
320,45894,,,,,
324,45906,,,,,
320,45918,,,,,
325,45929,,,,,
322,45940,,,,,
323,45952,,,,,
325,45963,,,,,
322,45975,,,,,
326,45986,,,,,
322,45998,,,,,
327,46009,,,,,
325,46020,,,,,
327,46031,,,,,
330,46044,,,,,
327,46055,,,,,
329,46066,,,,,
325,46077,,,,,
328,46089,,,,,
323,46100,,,,,
325,46112,,,,,
326,46124,,,,,
323,46135,,,,,
327,46146,,,,,
323,46157,,,,,
328,46169,,,,,
325,46181,,,,,
321,46192,,,,,
325,46203,,,,,
363,46215,,,,,
408,46226,,,,,
401,46238,,,,,
333,46249,,,,,
323,46261,,,,,
326,46272,,,,,
326,46283,,,,,
323,46295,,,,,
327,46307,,,,,
324,46318,,,,,
329,46329,,,,,
327,46341,,,,,
329,46352,,,,,
332,46363,,,,,
330,46375,,,,,
336,46387,,,,,
334,46398,,,,,
340,46409,,,,,
341,46420,,,,,
345,46432,,,,,
349,46444,,,,,
348,46455,,,,,
351,46467,,,,,
344,46478,,,,,
340,46489,,,,,
329,46500,,,,,
321,46513,,,,,
318,46524,,,,,
313,46535,,,,,
316,46546,,,,,
312,46558,,,,,
316,46570,,,,,
313,46581,,,,,
315,46593,,,,,
317,46604,,,,,
315,46615,,,,,
320,46626,,,,,
316,46639,,,,,
320,46650,,,,,
318,46661,,,,,
318,46672,,,,,
320,46684,,,,,
318,46695,,,,,
321,46707,,,,,
318,46718,,,,,
323,46730,,,,,
321,46741,,,,,
321,46752,,,,,
325,46764,,,,,
323,46776,,,,,
327,46787,,,,,
321,46798,,,,,
324,46810,,,,,
320,46821,,,,,
320,46832,,,,,
322,46844,,,,,
320,46856,,,,,
324,46867,,,,,
320,46878,,,,,
324,46889,,,,,
322,46901,,,,,
322,46913,,,,,
318,46924,,,,,
324,46936,,,,,
374,46947,,,,,
403,46958,,,,,
397,46970,,,,,
324,46982,,,,,
322,46993,,,,,
324,47004,,,,,
321,47015,,,,,
324,47027,,,,,
322,47039,,,,,
325,47050,,,,,
324,47062,,,,,
326,47073,,,,,
328,47084,,,,,
328,47095,,,,,
333,47108,,,,,
331,47119,,,,,
337,47130,,,,,
338,47141,,,,,
342,47153,,,,,
349,47164,,,,,
351,47176,,,,,
356,47187,,,,,
351,47199,,,,,
351,47210,,,,,
340,47221,,,,,
332,47233,,,,,
326,47245,,,,,
319,47256,,,,,
321,47267,,,,,
317,47279,,,,,
320,47290,,,,,
319,47302,,,,,
319,47313,,,,,
321,47325,,,,,
320,47336,,,,,
323,47347,,,,,
321,47358,,,,,
325,47371,,,,,
323,47382,,,,,
324,47393,,,,,
326,47405,,,,,
323,47416,,,,,
327,47427,,,,,
323,47439,,,,,
328,47451,,,,,
326,47462,,,,,
328,47473,,,,,
331,47484,,,,,
329,47496,,,,,
332,47508,,,,,
327,47519,,,,,
330,47531,,,,,
326,47542,,,,,
327,47553,,,,,
329,47564,,,,,
326,47577,,,,,
330,47588,,,,,
327,47599,,,,,
331,47610,,,,,
329,47622,,,,,
327,47633,,,,,
323,47645,,,,,
343,47656,,,,,
404,47668,,,,,
401,47679,,,,,
375,47690,,,,,
327,47703,,,,,
329,47714,,,,,
330,47725,,,,,
327,47736,,,,,
331,47748,,,,,
328,47759,,,,,
333,47771,,,,,
331,47782,,,,,
333,47794,,,,,
336,47805,,,,,
334,47816,,,,,
340,47827,,,,,
337,47840,,,,,
344,47851,,,,,
345,47862,,,,,
349,47874,,,,,
353,47885,,,,,
352,47896,,,,,
357,47908,,,,,
351,47920,,,,,
349,47931,,,,,
337,47942,,,,,
329,47953,,,,,
325,47965,,,,,
319,47977,,,,,
322,47988,,,,,
317,48000,,,,,
321,48011,,,,,
320,48022,,,,,
321,48034,,,,,
323,48046,,,,,
320,48057,,,,,
325,48068,,,,,
321,48079,,,,,
326,48091,,,,,
324,48103,,,,,
325,48114,,,,,
326,48125,,,,,
323,48137,,,,,
327,48148,,,,,
324,48159,,,,,
327,48172,,,,,
325,48183,,,,,
326,48194,,,,,
328,48205,,,,,
325,48217,,,,,
331,48228,,,,,
329,48240,,,,,
334,48251,,,,,
331,48263,,,,,
329,48274,,,,,
331,48285,,,,,
327,48296,,,,,
330,48309,,,,,
327,48320,,,,,
330,48331,,,,,
328,48343,,,,,
328,48354,,,,,
331,48365,,,,,
328,48377,,,,,
331,48389,,,,,
321,48400,,,,,
341,48411,,,,,
393,48422,,,,,
403,48435,,,,,
388,48446,,,,,
327,48457,,,,,
331,48468,,,,,
326,48480,,,,,
329,48491,,,,,
328,48503,,,,,
328,48515,,,,,
332,48526,,,,,
329,48537,,,,,
334,48548,,,,,
332,48560,,,,,
336,48572,,,,,
336,48583,,,,,
337,48594,,,,,
342,48606,,,,,
341,48617,,,,,
348,48628,,,,,
348,48641,,,,,
354,48652,,,,,
353,48663,,,,,
352,48674,,,,,
350,48686,,,,,
338,48697,,,,,
334,48709,,,,,
322,48720,,,,,
321,48732,,,,,
318,48743,,,,,
317,48754,,,,,
319,48766,,,,,
317,48778,,,,,
322,48789,,,,,
318,48800,,,,,
323,48812,,,,,
321,48823,,,,,
321,48835,,,,,
323,48846,,,,,
321,48858,,,,,
325,48869,,,,,
321,48880,,,,,
325,48891,,,,,
323,48904,,,,,
323,48915,,,,,
325,48926,,,,,
322,48937,,,,,
327,48949,,,,,
323,48960,,,,,
327,48972,,,,,
327,48984,,,,,
328,48995,,,,,
332,49006,,,,,
328,49017,,,,,
330,49029,,,,,
326,49041,,,,,
328,49052,,,,,
326,49063,,,,,
326,49075,,,,,
328,49086,,,,,
325,49097,,,,,
329,49110,,,,,
326,49121,,,,,
329,49132,,,,,
327,49143,,,,,
321,49155,,,,,
340,49167,,,,,
389,49178,,,,,
406,49189,,,,,
381,49201,,,,,
328,49212,,,,,
327,49223,,,,,
326,49235,,,,,
328,49247,,,,,
325,49258,,,,,
329,49269,,,,,
327,49281,,,,,
332,49292,,,,,
330,49304,,,,,
331,49315,,,,,
335,49327,,,,,
333,49338,,,,,
339,49349,,,,,
337,49360,,,,,
343,49373,,,,,
345,49384,,,,,
349,49395,,,,,
353,49406,,,,,
351,49418,,,,,
355,49429,,,,,
346,49441,,,,,
341,49453,,,,,
330,49464,,,,,
323,49475,,,,,
321,49486,,,,,
315,49499,,,,,
319,49510,,,,,
315,49521,,,,,
319,49532,,,,,
318,49544,,,,,
318,49555,,,,,
321,49567,,,,,
318,49579,,,,,
323,49590,,,,,
319,49601,,,,,
323,49612,,,,,
321,49624,,,,,
322,49636,,,,,
324,49647,,,,,
322,49658,,,,,
325,49670,,,,,
321,49681,,,,,
325,49692,,,,,
323,49704,,,,,
324,49716,,,,,
327,49727,,,,,
324,49738,,,,,
330,49750,,,,,
328,49761,,,,,
331,49773,,,,,
328,49784,,,,,
327,49796,,,,,
328,49807,,,,,
324,49818,,,,,
328,49829,,,,,
324,49842,,,,,
328,49853,,,,,
326,49864,,,,,
327,49875,,,,,
329,49887,,,,,
326,49899,,,,,
325,49910,,,,,
326,49922,,,,,
372,49933,,,,,
405,49944,,,,,
402,49955,,,,,
335,49968,,,,,
325,49979,,,,,
330,49990,,,,,
325,50001,,,,,
329,50013,,,,,
328,50024,,,,,
329,50036,,,,,
331,50048,,,,,
329,50059,,,,,
334,50070,,,,,
331,50081,,,,,
336,50093,,,,,
335,50105,,,,,
339,50116,,,,,
342,50127,,,,,
342,50139,,,,,
350,50150,,,,,
349,50161,,,,,
355,50173,,,,,
352,50185,,,,,
349,50196,,,,,
344,50207,,,,,
332,50219,,,,,
329,50231,,,,,
319,50242,,,,,
320,50253,,,,,
317,50265,,,,,
317,50276,,,,,
320,50287,,,,,
317,50299,,,,,
321,50311,,,,,
318,50322,,,,,
322,50333,,,,,
320,50344,,,,,
321,50356,,,,,
323,50368,,,,,
320,50379,,,,,
325,50391,,,,,
320,50402,,,,,
324,50413,,,,,
322,50424,,,,,
323,50437,,,,,
324,50448,,,,,
322,50459,,,,,
327,50470,,,,,
324,50482,,,,,
330,50493,,,,,
328,50505,,,,,
327,50516,,,,,
328,50528,,,,,
324,50539,,,,,
327,50550,,,,,
323,50562,,,,,
326,50574,,,,,
325,50585,,,,,
325,50596,,,,,
327,50608,,,,,
324,50619,,,,,
329,50631,,,,,
320,50642,,,,,
326,50654,,,,,
362,50665,,,,,
404,50676,,,,,
404,50688,,,,,
336,50700,,,,,
328,50711,,,,,
324,50722,,,,,
328,50734,,,,,
325,50745,,,,,
327,50756,,,,,
329,50768,,,,,
326,50780,,,,,
331,50791,,,,,
329,50802,,,,,
334,50813,,,,,
333,50825,,,,,
335,50837,,,,,
339,50848,,,,,
339,50860,,,,,
346,50871,,,,,
345,50882,,,,,
352,50893,,,,,
351,50906,,,,,
351,50917,,,,,
350,50928,,,,,
340,50939,,,,,
335,50951,,,,,
323,50963,,,,,
322,50974,,,,,
318,50985,,,,,
317,50997,,,,,
319,51008,,,,,
316,51019,,,,,
321,51032,,,,,
317,51043,,,,,
321,51054,,,,,
320,51065,,,,,
321,51077,,,,,
323,51088,,,,,
320,51100,,,,,
325,51111,,,,,
320,51123,,,,,
324,51134,,,,,
322,51145,,,,,
323,51156,,,,,
325,51169,,,,,
322,51180,,,,,
326,51191,,,,,
322,51203,,,,,
327,51214,,,,,
327,51225,,,,,
329,51237,,,,,
331,51249,,,,,
326,51260,,,,,
330,51271,,,,,
324,51282,,,,,
327,51294,,,,,
325,51306,,,,,
326,51317,,,,,
328,51329,,,,,
324,51340,,,,,
329,51351,,,,,
325,51363,,,,,
329,51375,,,,,
320,51386,,,,,
332,51397,,,,,
384,51408,,,,,
402,51420,,,,,
400,51432,,,,,
327,51443,,,,,
328,51454,,,,,
326,51466,,,,,
325,51477,,,,,
328,51488,,,,,
325,51501,,,,,
330,51512,,,,,
327,51523,,,,,
331,51534,,,,,
330,51546,,,,,
332,51557,,,,,
335,51569,,,,,
334,51580,,,,,
340,51592,,,,,
338,51603,,,,,
346,51614,,,,,
347,51625,,,,,
349,51638,,,,,
353,51649,,,,,
349,51660,,,,,
349,51672,,,,,
337,51683,,,,,
333,51695,,,,,
323,51706,,,,,
319,51718,,,,,
318,51729,,,,,
314,51740,,,,,
319,51751,,,,,
315,51764,,,,,
320,51775,,,,,
318,51786,,,,,
319,51798,,,,,
321,51809,,,,,
319,51820,,,,,
323,51832,,,,,
319,51844,,,,,
323,51855,,,,,
321,51866,,,,,
322,51877,,,,,
323,51889,,,,,
321,51901,,,,,
325,51912,,,,,
321,51923,,,,,
325,51935,,,,,
323,51946,,,,,
325,51957,,,,,
328,51970,,,,,
327,51981,,,,,
331,51992,,,,,
325,52003,,,,,
328,52015,,,,,
325,52026,,,,,
324,52038,,,,,
326,52049,,,,,
323,52061,,,,,
328,52072,,,,,
324,52083,,,,,
328,52096,,,,,
326,52107,,,,,
325,52118,,,,,
323,52129,,,,,
324,52141,,,,,
372,52152,,,,,
402,52164,,,,,
403,52175,,,,,
334,52187,,,,,
325,52198,,,,,
328,52209,,,,,
324,52220,,,,,
328,52233,,,,,
324,52244,,,,,
328,52255,,,,,
327,52267,,,,,
328,52278,,,,,
331,52289,,,,,
329,52301,,,,,
334,52313,,,,,
332,52324,,,,,
338,52335,,,,,
338,52346,,,,,
342,52358,,,,,
347,52370,,,,,
347,52381,,,,,
352,52392,,,,,
348,52404,,,,,
349,52415,,,,,
340,52427,,,,,
332,52439,,,,,
326,52450,,,,,
318,52461,,,,,
320,52472,,,,,
314,52484,,,,,
318,52496,,,,,
317,52507,,,,,
317,52518,,,,,
320,52530,,,,,
318,52541,,,,,
322,52552,,,,,
319,52564,,,,,
323,52576,,,,,
321,52587,,,,,
322,52598,,,,,
324,52610,,,,,
321,52621,,,,,
325,52633,,,,,
321,52644,,,,,
325,52656,,,,,
323,52667,,,,,
324,52678,,,,,
326,52689,,,,,
324,52702,,,,,
329,52713,,,,,
326,52724,,,,,
332,52736,,,,,
329,52747,,,,,
327,52758,,,,,
329,52770,,,,,
323,52782,,,,,
328,52793,,,,,
323,52804,,,,,
327,52815,,,,,
325,52828,,,,,
325,52839,,,,,
328,52850,,,,,
325,52861,,,,,
328,52873,,,,,
318,52884,,,,,
344,52896,,,,,
397,52908,,,,,
402,52919,,,,,
368,52930,,,,,
323,52941,,,,,
330,52953,,,,,
325,52965,,,,,
328,52976,,,,,
327,52987,,,,,
327,52999,,,,,
330,53010,,,,,
328,53021,,,,,
334,53033,,,,,
330,53045,,,,,
335,53056,,,,,
335,53067,,,,,
337,53079,,,,,
341,53090,,,,,
341,53102,,,,,
349,53113,,,,,
347,53125,,,,,
354,53136,,,,,
353,53147,,,,,
351,53159,,,,,
349,53171,,,,,
337,53182,,,,,
332,53193,,,,,
321,53204,,,,,
321,53216,,,,,
317,53228,,,,,
316,53239,,,,,
320,53251,,,,,
316,53262,,,,,
322,53273,,,,,
317,53284,,,,,
322,53297,,,,,
321,53308,,,,,
320,53319,,,,,
323,53330,,,,,
320,53342,,,,,
324,53353,,,,,
320,53365,,,,,
324,53377,,,,,
322,53388,,,,,
323,53399,,,,,
325,53410,,,,,
323,53422,,,,,
329,53434,,,,,
326,53445,,,,,
329,53456,,,,,
326,53468,,,,,
325,53479,,,,,
326,53490,,,,,
322,53502,,,,,
326,53514,,,,,
322,53525,,,,,
326,53536,,,,,
324,53548,,,,,
325,53560,,,,,
327,53571,,,,,
323,53582,,,,,
321,53594,,,,,
334,53605,,,,,
389,53616,,,,,
403,53628,,,,,
376,53640,,,,,
326,53651,,,,,
324,53662,,,,,
328,53673,,,,,
323,53685,,,,,
327,53697,,,,,
326,53708,,,,,
326,53720,,,,,
330,53731,,,,,
327,53742,,,,,
332,53753,,,,,
329,53766,,,,,
334,53777,,,,,
335,53788,,,,,
337,53799,,,,,
342,53811,,,,,
342,53822,,,,,
349,53834,,,,,
347,53846,,,,,
353,53857,,,,,
350,53868,,,,,
344,53879,,,,,
339,53892,,,,,
326,53903,,,,,
324,53914,,,,,
316,53925,,,,,
318,53937,,,,,
316,53948,,,,,
316,53960,,,,,
319,53971,,,,,
316,53983,,,,,
321,53994,,,,,
317,54005,,,,,
321,54017,,,,,
321,54029,,,,,
320,54040,,,,,
323,54051,,,,,
320,54063,,,,,
324,54074,,,,,
320,54085,,,,,
324,54097,,,,,
323,54109,,,,,
323,54120,,,,,
327,54131,,,,,
325,54142,,,,,
330,54154,,,,,
324,54166,,,,,
327,54177,,,,,
324,54189,,,,,
323,54200,,,,,
325,54211,,,,,
322,54222,,,,,
326,54235,,,,,
322,54246,,,,,
326,54257,,,,,
325,54268,,,,,
324,54280,,,,,
321,54292,,,,,
331,54303,,,,,
387,54315,,,,,
401,54326,,,,,
387,54337,,,,,
326,54348,,,,,
325,54361,,,,,
327,54372,,,,,
323,54383,,,,,
327,54394,,,,,
324,54406,,,,,
329,54417,,,,,
328,54429,,,,,
328,54440,,,,,
332,54452,,,,,
330,54463,,,,,
336,54474,,,,,
334,54486,,,,,
339,54498,,,,,
341,54509,,,,,
343,54520,,,,,
350,54532,,,,,
348,54543,,,,,
353,54554,,,,,
348,54566,,,,,
346,54578,,,,,
337,54589,,,,,
328,54600,,,,,
324,54611,,,,,
317,54624,,,,,
319,54635,,,,,
315,54646,,,,,
319,54658,,,,,
318,54669,,,,,
318,54680,,,,,
321,54692,,,,,
318,54704,,,,,
323,54715,,,,,
319,54726,,,,,
323,54737,,,,,
322,54749,,,,,
322,54761,,,,,
325,54772,,,,,
321,54784,,,,,
326,54795,,,,,
323,54806,,,,,
327,54817,,,,,
328,54830,,,,,
328,54841,,,,,
329,54852,,,,,
325,54863,,,,,
328,54875,,,,,
323,54886,,,,,
326,54898,,,,,
324,54909,,,,,
324,54921,,,,,
327,54932,,,,,
324,54943,,,,,
329,54955,,,,,
324,54967,,,,,
322,54978,,,,,
327,54989,,,,,
371,55001,,,,,
405,55012,,,,,
398,55024,,,,,
333,55035,,,,,
324,55047,,,,,
328,55058,,,,,
325,55069,,,,,
324,55080,,,,,
328,55093,,,,,
326,55104,,,,,
331,55115,,,,,
328,55127,,,,,
332,55138,,,,,
332,55149,,,,,
333,55161,,,,,
337,55173,,,,,
336,55184,,,,,
343,55195,,,,,
342,55206,,,,,
349,55218,,,,,
350,55230,,,,,
351,55241,,,,,
353,55252,,,,,
345,55264,,,,,
341,55275,,,,,
328,55286,,,,,
325,55299,,,,,
319,55310,,,,,
317,55321,,,,,
319,55332,,,,,
315,55344,,,,,
320,55356,,,,,
317,55367,,,,,
321,55378,,,,,
321,55390,,,,,
320,55401,,,,,
324,55412,,,,,
320,55425,,,,,
325,55436,,,,,
321,55447,,,,,
325,55458,,,,,
323,55470,,,,,
323,55481,,,,,
325,55493,,,,,
322,55504,,,,,
328,55516,,,,,
325,55527,,,,,
330,55538,,,,,
329,55549,,,,,
326,55562,,,,,
328,55573,,,,,
323,55584,,,,,
326,55596,,,,,
322,55607,,,,,
326,55618,,,,,
325,55630,,,,,
324,55642,,,,,
327,55653,,,,,
324,55664,,,,,
328,55675,,,,,
318,55687,,,,,
330,55699,,,,,
376,55710,,,,,
402,55721,,,,,
401,55733,,,,,
327,55744,,,,,
328,55756,,,,,
324,55768,,,,,
327,55779,,,,,
326,55790,,,,,
325,55801,,,,,
329,55813,,,,,
326,55825,,,,,
332,55836,,,,,
329,55847,,,,,
333,55859,,,,,
333,55870,,,,,
334,55881,,,,,
340,55894,,,,,
339,55905,,,,,
347,55916,,,,,
346,55927,,,,,
352,55939,,,,,
352,55950,,,,,
350,55962,,,,,
349,55973,,,,,
337,55985,,,,,
333,55996,,,,,
321,56007,,,,,
320,56018,,,,,
317,56031,,,,,
315,56042,,,,,
319,56053,,,,,
315,56065,,,,,
320,56076,,,,,
317,56088,,,,,
321,56099,,,,,
321,56111,,,,,
320,56122,,,,,
323,56133,,,,,
320,56144,,,,,
325,56157,,,,,
320,56168,,,,,
324,56179,,,,,
323,56190,,,,,
322,56202,,,,,
326,56213,,,,,
322,56225,,,,,
328,56237,,,,,
325,56248,,,,,
329,56259,,,,,
329,56270,,,,,
326,56282,,,,,
328,56294,,,,,
323,56305,,,,,
326,56316,,,,,
322,56328,,,,,
326,56339,,,,,
325,56350,,,,,
324,56363,,,,,
328,56374,,,,,
324,56385,,,,,
328,56396,,,,,
319,56408,,,,,
327,56419,,,,,
371,56431,,,,,
402,56442,,,,,
403,56454,,,,,
328,56465,,,,,
327,56476,,,,,
324,56488,,,,,
326,56500,,,,,
325,56511,,,,,
325,56522,,,,,
329,56534,,,,,
325,56545,,,,,
331,56557,,,,,
328,56568,,,,,
332,56580,,,,,
333,56591,,,,,
333,56602,,,,,
339,56613,,,,,
337,56626,,,,,
345,56637,,,,,
344,56648,,,,,
350,56659,,,,,
351,56671,,,,,
349,56682,,,,,
349,56694,,,,,
337,56706,,,,,
333,56717,,,,,
321,56728,,,,,
319,56739,,,,,
316,56751,,,,,
314,56763,,,,,
318,56774,,,,,
314,56785,,,,,
319,56797,,,,,
315,56808,,,,,
319,56820,,,,,
319,56832,,,,,
318,56843,,,,,
322,56854,,,,,
319,56865,,,,,
323,56877,,,,,
319,56889,,,,,
323,56900,,,,,
322,56911,,,,,
320,56923,,,,,
324,56934,,,,,
321,56945,,,,,
326,56957,,,,,
324,56969,,,,,
329,56980,,,,,
328,56991,,,,,
326,57003,,,,,
328,57014,,,,,
323,57026,,,,,
326,57037,,,,,
322,57049,,,,,
325,57060,,,,,
325,57071,,,,,
324,57082,,,,,
327,57095,,,,,
324,57106,,,,,
328,57117,,,,,
322,57128,,,,,
321,57140,,,,,
346,57151,,,,,
399,57163,,,,,
404,57175,,,,,
354,57186,,,,,
326,57197,,,,,
324,57208,,,,,
326,57221,,,,,
326,57232,,,,,
325,57243,,,,,
329,57254,,,,,
325,57266,,,,,
331,57277,,,,,
328,57289,,,,,
332,57300,,,,,
333,57312,,,,,
333,57323,,,,,
338,57334,,,,,
337,57346,,,,,
345,57358,,,,,
344,57369,,,,,
350,57380,,,,,
351,57392,,,,,
351,57403,,,,,
352,57414,,,,,
342,57426,,,,,
337,57438,,,,,
325,57449,,,,,
321,57460,,,,,
318,57472,,,,,
315,57483,,,,,
319,57495,,,,,
315,57506,,,,,
320,57518,,,,,
316,57529,,,,,
319,57540,,,,,
320,57552,,,,,
319,57564,,,,,
323,57575,,,,,
319,57586,,,,,
324,57597,,,,,
320,57609,,,,,
323,57621,,,,,
323,57632,,,,,
321,57644,,,,,
325,57655,,,,,
322,57666,,,,,
328,57677,,,,,
326,57690,,,,,
329,57701,,,,,
327,57712,,,,,
324,57723,,,,,
327,57735,,,,,
321,57746,,,,,
326,57758,,,,,
322,57769,,,,,
325,57781,,,,,
325,57792,,,,,
323,57803,,,,,
327,57815,,,,,
324,57827,,,,,
325,57838,,,,,
319,57849,,,,,
354,57861,,,,,
405,57872,,,,,
401,57883,,,,,
347,57895,,,,,
322,57907,,,,,
328,57918,,,,,
324,57929,,,,,
325,57940,,,,,
326,57953,,,,,
325,57964,,,,,
329,57975,,,,,
327,57987,,,,,
332,57998,,,,,
329,58009,,,,,
333,58021,,,,,
334,58033,,,,,
335,58044,,,,,
341,58055,,,,,
340,58066,,,,,
349,58078,,,,,
348,58090,,,,,
352,58101,,,,,
352,58113,,,,,
348,58124,,,,,
343,58135,,,,,
330,58146,,,,,
326,58159,,,,,
318,58170,,,,,
318,58181,,,,,
317,58192,,,,,
315,58204,,,,,
319,58215,,,,,
315,58227,,,,,
320,58238,,,,,
317,58250,,,,,
320,58261,,,,,
321,58272,,,,,
320,58285,,,,,
323,58296,,,,,
320,58307,,,,,
324,58318,,,,,
321,58330,,,,,
323,58341,,,,,
323,58353,,,,,
322,58364,,,,,
326,58376,,,,,
324,58387,,,,,
330,58398,,,,,
327,58409,,,,,
327,58422,,,,,
327,58433,,,,,
324,58444,,,,,
326,58456,,,,,
322,58467,,,,,
327,58478,,,,,
323,58490,,,,,
326,58502,,,,,
326,58513,,,,,
325,58524,,,,,
328,58535,,,,,
321,58547,,,,,
324,58559,,,,,
356,58570,,,,,
405,58582,,,,,
403,58593,,,,,
343,58604,,,,,
327,58615,,,,,
324,58628,,,,,
328,58639,,,,,
324,58650,,,,,
326,58661,,,,,
327,58673,,,,,
326,58685,,,,,
331,58696,,,,,
328,58707,,,,,
334,58719,,,,,
332,58730,,,,,
335,58741,,,,,
337,58754,,,,,
338,58765,,,,,
344,58776,,,,,
345,58787,,,,,
352,58799,,,,,
350,58810,,,,,
353,58822,,,,,
349,58833,,,,,
340,58845,,,,,
334,58856,,,,,
322,58867,,,,,
321,58878,,,,,
316,58891,,,,,
317,58902,,,,,
316,58913,,,,,
315,58925,,,,,
319,58936,,,,,
315,58947,,,,,
320,58959,,,,,
317,58971,,,,,
320,58982,,,,,
321,58993,,,,,
320,59004,,,,,
323,59017,,,,,
319,59028,,,,,
324,59039,,,,,
321,59051,,,,,
323,59062,,,,,
324,59073,,,,,
322,59085,,,,,
326,59097,,,,,
322,59108,,,,,
329,59119,,,,,
327,59130,,,,,
329,59142,,,,,
328,59154,,,,,
325,59165,,,,,
328,59176,,,,,
323,59188,,,,,
327,59199,,,,,
323,59210,,,,,
325,59223,,,,,
326,59234,,,,,
324,59245,,,,,
329,59256,,,,,
324,59268,,,,,
325,59279,,,,,
322,59291,,,,,
360,59302,,,,,
405,59314,,,,,
400,59325,,,,,
345,59336,,,,,
323,59347,,,,,
328,59360,,,,,
324,59371,,,,,
326,59382,,,,,
327,59394,,,,,
325,59405,,,,,
330,59417,,,,,
327,59428,,,,,
332,59440,,,,,
330,59451,,,,,
333,59462,,,,,
335,59473,,,,,
335,59486,,,,,
341,59497,,,,,
341,59508,,,,,
349,59520,,,,,
349,59531,,,,,
353,59542,,,,,
353,59554,,,,,
348,59566,,,,,
345,59577,,,,,
331,59588,,,,,
327,59599,,,,,
319,59611,,,,,
318,59623,,,,,
317,59634,,,,,
315,59645,,,,,
319,59657,,,,,
315,59668,,,,,
320,59679,,,,,
317,59692,,,,,
320,59703,,,,,
321,59714,,,,,
319,59725,,,,,
323,59737,,,,,
320,59749,,,,,
324,59760,,,,,
321,59771,,,,,
322,59783,,,,,
323,59794,,,,,
321,59805,,,,,
325,59817,,,,,
321,59829,,,,,
325,59840,,,,,
323,59851,,,,,
325,59863,,,,,
327,59874,,,,,
327,59886,,,,,
331,59897,,,,,
326,59909,,,,,
329,59920,,,,,
326,59931,,,,,
325,59942,,,,,
326,59955,,,,,
323,59966,,,,,
328,59977,,,,,
323,59988,,,,,
328,60000,,,,,
325,60011,,,,,
