EKG,T,,,,,
394,2,91.62895928,0.040676717,23.45679012,0.038681391,0
390,3,,,,,
388,4,,,,,
387,5,,,,,
386,6,,,,,
386,7,,,,,
388,8,,,,,
391,9,,,,,
393,10,,,,,
395,11,,,,,
396,19,,,,,
377,27,,,,,
390,35,,,,,
379,45,,,,,
381,53,,,,,
387,61,,,,,
372,69,,,,,
388,77,,,,,
376,86,,,,,
408,94,,,,,
436,102,,,,,
449,112,,,,,
453,121,,,,,
390,131,,,,,
394,140,,,,,
378,149,,,,,
392,158,,,,,
373,167,,,,,
389,178,,,,,
373,187,,,,,
389,196,,,,,
376,205,,,,,
389,215,,,,,
381,224,,,,,
388,233,,,,,
388,242,,,,,
387,252,,,,,
396,262,,,,,
389,271,,,,,
406,280,,,,,
393,289,,,,,
413,299,,,,,
398,308,,,,,
417,318,,,,,
400,327,,,,,
412,336,,,,,
389,346,,,,,
391,355,,,,,
371,364,,,,,
371,373,,,,,
363,384,,,,,
359,393,,,,,
363,402,,,,,
353,411,,,,,
365,420,,,,,
350,430,,,,,
367,439,,,,,
350,449,,,,,
368,458,,,,,
352,467,,,,,
369,477,,,,,
354,486,,,,,
368,495,,,,,
356,504,,,,,
365,515,,,,,
360,524,,,,,
360,533,,,,,
364,542,,,,,
356,551,,,,,
367,561,,,,,
353,570,,,,,
368,580,,,,,
350,589,,,,,
368,599,,,,,
351,608,,,,,
368,617,,,,,
352,626,,,,,
367,635,,,,,
355,646,,,,,
365,655,,,,,
360,664,,,,,
365,673,,,,,
367,683,,,,,
359,692,,,,,
368,701,,,,,
353,711,,,,,
369,720,,,,,
352,730,,,,,
370,739,,,,,
352,748,,,,,
369,757,,,,,
355,766,,,,,
395,777,,,,,
415,786,,,,,
453,795,,,,,
431,804,,,,,
380,814,,,,,
374,823,,,,,
369,832,,,,,
373,841,,,,,
360,851,,,,,
375,861,,,,,
359,870,,,,,
377,879,,,,,
360,888,,,,,
380,898,,,,,
364,907,,,,,
383,917,,,,,
370,926,,,,,
385,935,,,,,
379,945,,,,,
388,954,,,,,
390,963,,,,,
392,972,,,,,
401,983,,,,,
393,992,,,,,
409,1001,,,,,
393,1011,,,,,
399,1021,,,,,
377,1032,,,,,
373,1043,,,,,
359,1053,,,,,
356,1063,,,,,
352,1074,,,,,
349,1084,,,,,
353,1094,,,,,
346,1104,,,,,
355,1116,,,,,
346,1126,,,,,
359,1136,,,,,
346,1146,,,,,
361,1157,,,,,
346,1167,,,,,
363,1178,,,,,
346,1188,,,,,
363,1199,,,,,
346,1209,,,,,
364,1219,,,,,
346,1229,,,,,
364,1240,,,,,
346,1251,,,,,
363,1261,,,,,
348,1271,,,,,
362,1282,,,,,
349,1292,,,,,
359,1302,,,,,
352,1313,,,,,
358,1324,,,,,
355,1334,,,,,
356,1344,,,,,
360,1354,,,,,
355,1364,,,,,
365,1376,,,,,
356,1386,,,,,
369,1396,,,,,
353,1406,,,,,
367,1417,,,,,
351,1427,,,,,
368,1437,,,,,
351,1448,,,,,
368,1459,,,,,
350,1469,,,,,
374,1479,,,,,
386,1489,,,,,
438,1500,,,,,
435,1511,,,,,
399,1521,,,,,
364,1531,,,,,
377,1542,,,,,
361,1552,,,,,
369,1562,,,,,
361,1572,,,,,
368,1584,,,,,
366,1594,,,,,
368,1604,,,,,
372,1614,,,,,
369,1625,,,,,
378,1635,,,,,
371,1646,,,,,
386,1656,,,,,
377,1667,,,,,
395,1677,,,,,
384,1687,,,,,
403,1697,,,,,
388,1709,,,,,
406,1719,,,,,
385,1729,,,,,
394,1739,,,,,
364,1750,,,,,
372,1760,,,,,
347,1770,,,,,
362,1781,,,,,
342,1792,,,,,
358,1802,,,,,
343,1812,,,,,
356,1822,,,,,
347,1832,,,,,
355,1844,,,,,
351,1854,,,,,
354,1864,,,,,
354,1874,,,,,
352,1885,,,,,
357,1895,,,,,
350,1905,,,,,
360,1916,,,,,
347,1927,,,,,
360,1937,,,,,
346,1947,,,,,
361,1957,,,,,
344,1968,,,,,
362,1979,,,,,
344,1989,,,,,
363,1999,,,,,
345,2010,,,,,
364,2020,,,,,
345,2030,,,,,
364,2041,,,,,
346,2052,,,,,
363,2062,,,,,
348,2072,,,,,
361,2082,,,,,
351,2093,,,,,
360,2103,,,,,
354,2114,,,,,
359,2124,,,,,
361,2135,,,,,
361,2145,,,,,
363,2155,,,,,
356,2165,,,,,
363,2177,,,,,
352,2187,,,,,
365,2197,,,,,
351,2207,,,,,
365,2217,,,,,
351,2228,,,,,
390,2238,,,,,
410,2249,,,,,
452,2259,,,,,
407,2270,,,,,
382,2280,,,,,
361,2290,,,,,
376,2300,,,,,
355,2312,,,,,
372,2322,,,,,
356,2332,,,,,
371,2342,,,,,
361,2353,,,,,
372,2363,,,,,
367,2374,,,,,
373,2384,,,,,
374,2395,,,,,
376,2405,,,,,
382,2415,,,,,
380,2425,,,,,
392,2436,,,,,
385,2447,,,,,
399,2457,,,,,
387,2467,,,,,
401,2478,,,,,
378,2488,,,,,
385,2498,,,,,
357,2509,,,,,
367,2520,,,,,
345,2530,,,,,
360,2540,,,,,
340,2550,,,,,
358,2561,,,,,
341,2571,,,,,
359,2582,,,,,
343,2592,,,,,
359,2603,,,,,
346,2613,,,,,
357,2623,,,,,
349,2633,,,,,
355,2644,,,,,
352,2655,,,,,
353,2665,,,,,
354,2675,,,,,
350,2685,,,,,
356,2696,,,,,
347,2707,,,,,
359,2717,,,,,
346,2727,,,,,
360,2738,,,,,
345,2748,,,,,
361,2758,,,,,
345,2768,,,,,
362,2780,,,,,
345,2790,,,,,
363,2800,,,,,
345,2810,,,,,
363,2821,,,,,
347,2831,,,,,
364,2842,,,,,
347,2852,,,,,
364,2863,,,,,
351,2873,,,,,
365,2883,,,,,
357,2893,,,,,
364,2904,,,,,
358,2915,,,,,
359,2925,,,,,
358,2935,,,,,
356,2946,,,,,
362,2956,,,,,
354,2966,,,,,
363,2977,,,,,
358,2988,,,,,
403,2998,,,,,
421,3008,,,,,
450,3018,,,,,
380,3028,,,,,
379,3040,,,,,
359,3050,,,,,
374,3060,,,,,
354,3070,,,,,
372,3081,,,,,
355,3091,,,,,
373,3101,,,,,
358,3112,,,,,
375,3123,,,,,
363,3133,,,,,
378,3143,,,,,
369,3153,,,,,
381,3164,,,,,
379,3175,,,,,
385,3185,,,,,
388,3195,,,,,
389,3206,,,,,
395,3216,,,,,
388,3226,,,,,
395,3236,,,,,
376,3248,,,,,
378,3258,,,,,
355,3268,,,,,
364,3278,,,,,
343,3289,,,,,
359,3299,,,,,
340,3310,,,,,
359,3320,,,,,
341,3331,,,,,
360,3341,,,,,
342,3351,,,,,
362,3361,,,,,
344,3373,,,,,
362,3383,,,,,
346,3393,,,,,
360,3403,,,,,
349,3414,,,,,
358,3424,,,,,
350,3434,,,,,
355,3445,,,,,
353,3456,,,,,
352,3466,,,,,
355,3476,,,,,
350,3486,,,,,
358,3496,,,,,
348,3508,,,,,
360,3518,,,,,
347,3528,,,,,
362,3538,,,,,
346,3549,,,,,
363,3559,,,,,
346,3569,,,,,
365,3580,,,,,
346,3591,,,,,
366,3601,,,,,
347,3611,,,,,
367,3621,,,,,
351,3632,,,,,
371,3643,,,,,
354,3653,,,,,
368,3663,,,,,
353,3674,,,,,
364,3684,,,,,
355,3694,,,,,
363,3705,,,,,
358,3716,,,,,
359,3726,,,,,
366,3736,,,,,
400,3746,,,,,
439,3757,,,,,
435,3767,,,,,
391,3778,,,,,
365,3788,,,,,
377,3799,,,,,
359,3809,,,,,
373,3819,,,,,
356,3829,,,,,
375,3841,,,,,
357,3851,,,,,
377,3861,,,,,
360,3871,,,,,
381,3881,,,,,
364,3892,,,,,
386,3902,,,,,
371,3913,,,,,
391,3923,,,,,
379,3934,,,,,
397,3944,,,,,
388,3954,,,,,
399,3964,,,,,
393,3976,,,,,
393,3986,,,,,
385,3996,,,,,
371,4006,,,,,
367,4017,,,,,
353,4027,,,,,
358,4038,,,,,
345,4048,,,,,
357,4059,,,,,
344,4069,,,,,
359,4079,,,,,
344,4089,,,,,
361,4100,,,,,
344,4111,,,,,
363,4121,,,,,
346,4131,,,,,
364,4142,,,,,
345,4152,,,,,
364,4162,,,,,
345,4173,,,,,
362,4184,,,,,
347,4194,,,,,
361,4204,,,,,
349,4214,,,,,
358,4225,,,,,
351,4235,,,,,
356,4246,,,,,
354,4256,,,,,
353,4267,,,,,
357,4277,,,,,
351,4287,,,,,
360,4297,,,,,
351,4308,,,,,
366,4319,,,,,
353,4329,,,,,
367,4339,,,,,
349,4349,,,,,
365,4360,,,,,
347,4371,,,,,
366,4381,,,,,
347,4391,,,,,
365,4402,,,,,
348,4412,,,,,
387,4422,,,,,
409,4432,,,,,
444,4444,,,,,
401,4454,,,,,
375,4464,,,,,
361,4474,,,,,
369,4485,,,,,
359,4495,,,,,
364,4506,,,,,
362,4516,,,,,
363,4527,,,,,
366,4537,,,,,
363,4547,,,,,
372,4557,,,,,
366,4568,,,,,
380,4579,,,,,
369,4589,,,,,
387,4599,,,,,
374,4610,,,,,
395,4620,,,,,
381,4630,,,,,
402,4641,,,,,
384,4652,,,,,
401,4662,,,,,
374,4672,,,,,
383,4682,,,,,
353,4692,,,,,
365,4704,,,,,
343,4714,,,,,
357,4724,,,,,
342,4734,,,,,
354,4745,,,,,
345,4755,,,,,
352,4765,,,,,
349,4776,,,,,
351,4787,,,,,
353,4797,,,,,
350,4807,,,,,
356,4817,,,,,
349,4828,,,,,
359,4839,,,,,
347,4849,,,,,
360,4859,,,,,
346,4870,,,,,
360,4880,,,,,
344,4890,,,,,
362,4900,,,,,
344,4912,,,,,
362,4922,,,,,
344,4932,,,,,
363,4942,,,,,
345,4953,,,,,
364,4963,,,,,
347,4974,,,,,
364,4984,,,,,
348,4995,,,,,
365,5005,,,,,
356,5015,,,,,
365,5025,,,,,
357,5037,,,,,
359,5047,,,,,
358,5057,,,,,
357,5067,,,,,
361,5078,,,,,
355,5088,,,,,
363,5098,,,,,
358,5109,,,,,
410,5120,,,,,
427,5130,,,,,
445,5140,,,,,
375,5150,,,,,
376,5160,,,,,
359,5172,,,,,
374,5182,,,,,
355,5192,,,,,
373,5202,,,,,
356,5213,,,,,
375,5223,,,,,
359,5233,,,,,
378,5244,,,,,
363,5255,,,,,
380,5265,,,,,
371,5275,,,,,
384,5285,,,,,
379,5296,,,,,
388,5307,,,,,
389,5317,,,,,
392,5327,,,,,
397,5338,,,,,
392,5348,,,,,
395,5358,,,,,
376,5369,,,,,
377,5380,,,,,
353,5390,,,,,
363,5400,,,,,
342,5410,,,,,
358,5421,,,,,
339,5431,,,,,
358,5442,,,,,
340,5452,,,,,
360,5463,,,,,
341,5473,,,,,
361,5483,,,,,
342,5493,,,,,
361,5505,,,,,
344,5515,,,,,
360,5525,,,,,
347,5535,,,,,
359,5545,,,,,
349,5556,,,,,
356,5566,,,,,
352,5577,,,,,
354,5587,,,,,
355,5598,,,,,
350,5608,,,,,
357,5618,,,,,
348,5628,,,,,
359,5640,,,,,
347,5650,,,,,
362,5660,,,,,
347,5670,,,,,
366,5681,,,,,
350,5691,,,,,
368,5702,,,,,
347,5712,,,,,
365,5723,,,,,
344,5733,,,,,
365,5743,,,,,
345,5753,,,,,
364,5764,,,,,
346,5775,,,,,
376,5785,,,,,
397,5795,,,,,
444,5806,,,,,
432,5816,,,,,
380,5826,,,,,
365,5837,,,,,
366,5848,,,,,
363,5858,,,,,
359,5868,,,,,
364,5878,,,,,
358,5889,,,,,
369,5899,,,,,
358,5910,,,,,
374,5920,,,,,
361,5931,,,,,
381,5941,,,,,
365,5951,,,,,
388,5961,,,,,
372,5972,,,,,
396,5983,,,,,
379,5993,,,,,
402,6003,,,,,
384,6013,,,,,
403,6024,,,,,
377,6035,,,,,
385,6045,,,,,
356,6055,,,,,
363,6066,,,,,
345,6076,,,,,
352,6086,,,,,
343,6096,,,,,
349,6108,,,,,
346,6118,,,,,
347,6128,,,,,
350,6138,,,,,
345,6149,,,,,
354,6159,,,,,
344,6170,,,,,
357,6180,,,,,
344,6191,,,,,
360,6201,,,,,
343,6211,,,,,
361,6221,,,,,
343,6232,,,,,
361,6243,,,,,
341,6253,,,,,
362,6263,,,,,
341,6274,,,,,
362,6284,,,,,
342,6294,,,,,
362,6305,,,,,
344,6316,,,,,
360,6326,,,,,
346,6336,,,,,
359,6346,,,,,
350,6356,,,,,
357,6368,,,,,
356,6378,,,,,
359,6388,,,,,
361,6398,,,,,
355,6409,,,,,
360,6419,,,,,
351,6429,,,,,
363,6440,,,,,
349,6451,,,,,
364,6461,,,,,
346,6471,,,,,
371,6481,,,,,
384,6492,,,,,
439,6503,,,,,
432,6513,,,,,
399,6523,,,,,
359,6534,,,,,
377,6544,,,,,
353,6554,,,,,
371,6564,,,,,
353,6576,,,,,
370,6586,,,,,
357,6596,,,,,
371,6606,,,,,
362,6617,,,,,
373,6627,,,,,
370,6638,,,,,
375,6648,,,,,
378,6659,,,,,
378,6669,,,,,
388,6679,,,,,
384,6689,,,,,
397,6701,,,,,
386,6711,,,,,
401,6721,,,,,
381,6731,,,,,
389,6742,,,,,
359,6752,,,,,
369,6762,,,,,
344,6773,,,,,
360,6784,,,,,
339,6794,,,,,
359,6804,,,,,
338,6814,,,,,
359,6824,,,,,
340,6836,,,,,
359,6846,,,,,
343,6856,,,,,
359,6866,,,,,
347,6877,,,,,
357,6887,,,,,
350,6897,,,,,
355,6908,,,,,
353,6919,,,,,
352,6929,,,,,
356,6939,,,,,
349,6949,,,,,
358,6960,,,,,
347,6971,,,,,
360,6981,,,,,
345,6991,,,,,
362,7002,,,,,
345,7012,,,,,
363,7022,,,,,
345,7033,,,,,
365,7044,,,,,
345,7054,,,,,
366,7064,,,,,
346,7074,,,,,
366,7085,,,,,
347,7095,,,,,
368,7106,,,,,
352,7116,,,,,
370,7127,,,,,
355,7137,,,,,
365,7147,,,,,
355,7157,,,,,
361,7169,,,,,
358,7179,,,,,
359,7189,,,,,
359,7199,,,,,
356,7209,,,,,
387,7220,,,,,
415,7230,,,,,
450,7241,,,,,
409,7251,,,,,
381,7262,,,,,
361,7272,,,,,
376,7282,,,,,
355,7292,,,,,
373,7304,,,,,
354,7314,,,,,
375,7324,,,,,
356,7334,,,,,
378,7345,,,,,
360,7355,,,,,
382,7366,,,,,
365,7376,,,,,
386,7387,,,,,
373,7397,,,,,
389,7407,,,,,
382,7417,,,,,
392,7428,,,,,
390,7439,,,,,
393,7449,,,,,
392,7459,,,,,
382,7470,,,,,
379,7480,,,,,
360,7490,,,,,
364,7501,,,,,
346,7512,,,,,
359,7522,,,,,
342,7532,,,,,
359,7542,,,,,
342,7553,,,,,
362,7563,,,,,
343,7574,,,,,
364,7584,,,,,
344,7595,,,,,
365,7605,,,,,
345,7615,,,,,
366,7625,,,,,
346,7636,,,,,
364,7647,,,,,
347,7657,,,,,
362,7667,,,,,
349,7677,,,,,
359,7688,,,,,
352,7699,,,,,
356,7709,,,,,
355,7719,,,,,
353,7730,,,,,
357,7740,,,,,
351,7750,,,,,
360,7760,,,,,
349,7772,,,,,
364,7782,,,,,
348,7792,,,,,
365,7802,,,,,
348,7813,,,,,
367,7823,,,,,
348,7834,,,,,
369,7844,,,,,
351,7855,,,,,
373,7865,,,,,
353,7875,,,,,
372,7885,,,,,
351,7896,,,,,
369,7907,,,,,
352,7917,,,,,
368,7927,,,,,
354,7938,,,,,
366,7948,,,,,
363,7958,,,,,
406,7969,,,,,
437,7980,,,,,
442,7990,,,,,
391,8000,,,,,
368,8010,,,,,
375,8020,,,,,
362,8032,,,,,
372,8042,,,,,
358,8052,,,,,
374,8062,,,,,
359,8073,,,,,
378,8083,,,,,
361,8093,,,,,
382,8104,,,,,
364,8115,,,,,
387,8125,,,,,
370,8135,,,,,
393,8145,,,,,
377,8156,,,,,
399,8167,,,,,
383,8177,,,,,
402,8187,,,,,
388,8198,,,,,
397,8208,,,,,
378,8218,,,,,
376,8228,,,,,
362,8240,,,,,
357,8250,,,,,
354,8260,,,,,
349,8270,,,,,
355,8281,,,,,
346,8291,,,,,
358,8302,,,,,
346,8312,,,,,
362,8323,,,,,
346,8333,,,,,
364,8343,,,,,
346,8353,,,,,
367,8365,,,,,
345,8375,,,,,
366,8385,,,,,
346,8395,,,,,
366,8406,,,,,
345,8416,,,,,
365,8426,,,,,
345,8437,,,,,
363,8448,,,,,
347,8458,,,,,
361,8468,,,,,
350,8478,,,,,
359,8488,,,,,
353,8500,,,,,
357,8510,,,,,
356,8520,,,,,
354,8530,,,,,
361,8541,,,,,
356,8551,,,,,
367,8561,,,,,
354,8572,,,,,
366,8583,,,,,
349,8593,,,,,
367,8603,,,,,
349,8613,,,,,
369,8624,,,,,
348,8635,,,,,
369,8645,,,,,
374,8655,,,,,
435,8666,,,,,
434,8676,,,,,
427,8686,,,,,
362,8697,,,,,
380,8708,,,,,
358,8718,,,,,
371,8728,,,,,
357,8738,,,,,
368,8749,,,,,
362,8759,,,,,
368,8770,,,,,
368,8780,,,,,
369,8791,,,,,
374,8801,,,,,
371,8811,,,,,
383,8821,,,,,
375,8833,,,,,
392,8843,,,,,
380,8853,,,,,
400,8863,,,,,
384,8873,,,,,
403,8884,,,,,
382,8894,,,,,
393,8905,,,,,
361,8915,,,,,
373,8926,,,,,
345,8936,,,,,
361,8946,,,,,
339,8956,,,,,
359,8968,,,,,
340,8978,,,,,
357,8988,,,,,
344,8998,,,,,
357,9009,,,,,
347,9019,,,,,
355,9030,,,,,
352,9040,,,,,
353,9051,,,,,
355,9061,,,,,
351,9071,,,,,
358,9081,,,,,
349,9092,,,,,
360,9103,,,,,
347,9113,,,,,
362,9123,,,,,
346,9134,,,,,
364,9144,,,,,
345,9154,,,,,
365,9165,,,,,
345,9176,,,,,
365,9186,,,,,
346,9196,,,,,
367,9206,,,,,
346,9217,,,,,
367,9227,,,,,
351,9238,,,,,
371,9248,,,,,
355,9259,,,,,
367,9269,,,,,
355,9279,,,,,
363,9289,,,,,
357,9300,,,,,
361,9311,,,,,
360,9321,,,,,
357,9331,,,,,
365,9341,,,,,
383,9352,,,,,
430,9363,,,,,
436,9373,,,,,
411,9383,,,,,
365,9394,,,,,
379,9404,,,,,
358,9414,,,,,
374,9424,,,,,
355,9436,,,,,
375,9446,,,,,
357,9456,,,,,
379,9466,,,,,
359,9477,,,,,
381,9487,,,,,
364,9498,,,,,
385,9508,,,,,
371,9519,,,,,
389,9529,,,,,
379,9539,,,,,
393,9549,,,,,
388,9560,,,,,
395,9571,,,,,
394,9581,,,,,
391,9591,,,,,
388,9602,,,,,
372,9612,,,,,
371,9622,,,,,
354,9633,,,,,
363,9644,,,,,
347,9654,,,,,
363,9664,,,,,
345,9674,,,,,
364,9684,,,,,
346,9696,,,,,
366,9706,,,,,
347,9716,,,,,
368,9726,,,,,
348,9737,,,,,
369,9747,,,,,
349,9757,,,,,
369,9768,,,,,
351,9779,,,,,
368,9789,,,,,
353,9799,,,,,
365,9809,,,,,
356,9820,,,,,
362,9831,,,,,
359,9841,,,,,
360,9851,,,,,
363,9862,,,,,
357,9872,,,,,
365,9882,,,,,
355,9892,,,,,
368,9904,,,,,
354,9914,,,,,
370,9924,,,,,
354,9934,,,,,
375,9945,,,,,
358,9955,,,,,
376,9966,,,,,
355,9976,,,,,
373,9987,,,,,
352,9997,,,,,
373,10007,,,,,
354,10018,,,,,
367,10031,,,,,
364,10042,,,,,
380,10053,,,,,
434,10064,,,,,
431,10076,,,,,
403,10087,,,,,
364,10099,,,,,
377,10110,,,,,
370,10122,,,,,
363,10133,,,,,
377,10144,,,,,
360,10156,,,,,
382,10168,,,,,
365,10179,,,,,
380,10190,,,,,
379,10202,,,,,
375,10213,,,,,
393,10224,,,,,
378,10236,,,,,
402,10248,,,,,
387,10259,,,,,
403,10270,,,,,
401,10281,,,,,
392,10293,,,,,
397,10305,,,,,
366,10316,,,,,
375,10328,,,,,
349,10339,,,,,
359,10350,,,,,
354,10362,,,,,
347,10374,,,,,
362,10385,,,,,
344,10396,,,,,
364,10407,,,,,
347,10419,,,,,
360,10431,,,,,
357,10442,,,,,
351,10454,,,,,
366,10465,,,,,
347,10476,,,,,
367,10487,,,,,
348,10500,,,,,
361,10511,,,,,
357,10522,,,,,
350,10533,,,,,
365,10545,,,,,
347,10556,,,,,
367,10568,,,,,
349,10579,,,,,
362,10591,,,,,
362,10602,,,,,
357,10613,,,,,
370,10625,,,,,
349,10637,,,,,
368,10648,,,,,
349,10659,,,,,
362,10671,,,,,
359,10682,,,,,
351,10694,,,,,
369,10705,,,,,
387,10717,,,,,
438,10728,,,,,
420,10739,,,,,
377,10750,,,,,
369,10763,,,,,
360,10774,,,,,
372,10785,,,,,
353,10797,,,,,
374,10808,,,,,
357,10819,,,,,
371,10831,,,,,
370,10843,,,,,
366,10854,,,,,
383,10865,,,,,
367,10876,,,,,
391,10888,,,,,
377,10900,,,,,
393,10911,,,,,
394,10923,,,,,
389,10934,,,,,
403,10945,,,,,
378,10956,,,,,
387,10969,,,,,
358,10980,,,,,
361,10991,,,,,
354,11002,,,,,
344,11014,,,,,
359,11025,,,,,
340,11037,,,,,
361,11048,,,,,
343,11060,,,,,
356,11071,,,,,
355,11082,,,,,
348,11095,,,,,
363,11106,,,,,
345,11117,,,,,
365,11128,,,,,
347,11140,,,,,
358,11151,,,,,
357,11163,,,,,
349,11174,,,,,
364,11186,,,,,
344,11197,,,,,
365,11208,,,,,
347,11219,,,,,
359,11232,,,,,
358,11243,,,,,
350,11254,,,,,
366,11266,,,,,
348,11277,,,,,
371,11288,,,,,
355,11300,,,,,
365,11312,,,,,
362,11323,,,,,
352,11334,,,,,
368,11345,,,,,
349,11357,,,,,
370,11369,,,,,
350,11380,,,,,
367,11392,,,,,
402,11403,,,,,
428,11414,,,,,
439,11426,,,,,
365,11438,,,,,
381,11449,,,,,
359,11460,,,,,
368,11471,,,,,
366,11483,,,,,
359,11495,,,,,
375,11506,,,,,
357,11517,,,,,
381,11529,,,,,
364,11540,,,,,
379,11551,,,,,
381,11564,,,,,
375,11575,,,,,
395,11586,,,,,
379,11597,,,,,
403,11609,,,,,
387,11620,,,,,
397,11632,,,,,
391,11643,,,,,
371,11655,,,,,
376,11666,,,,,
349,11677,,,,,
364,11688,,,,,
344,11701,,,,,
355,11712,,,,,
354,11723,,,,,
346,11735,,,,,
362,11746,,,,,
344,11757,,,,,
365,11769,,,,,
348,11781,,,,,
359,11792,,,,,
359,11803,,,,,
350,11814,,,,,
366,11827,,,,,
347,11838,,,,,
367,11849,,,,,
349,11860,,,,,
359,11872,,,,,
359,11883,,,,,
350,11895,,,,,
366,11907,,,,,
347,11918,,,,,
367,11929,,,,,
349,11940,,,,,
362,11952,,,,,
362,11964,,,,,
354,11975,,,,,
373,11986,,,,,
354,11998,,,,,
372,12009,,,,,
353,12020,,,,,
363,12033,,,,,
363,12044,,,,,
355,12055,,,,,
370,12066,,,,,
351,12078,,,,,
391,12089,,,,,
416,12101,,,,,
445,12112,,,,,
398,12124,,,,,
364,12135,,,,,
379,12146,,,,,
357,12158,,,,,
375,12170,,,,,
358,12181,,,,,
370,12192,,,,,
371,12204,,,,,
363,12215,,,,,
382,12227,,,,,
365,12238,,,,,
387,12250,,,,,
373,12261,,,,,
388,12272,,,,,
391,12283,,,,,
385,12296,,,,,
405,12307,,,,,
386,12318,,,,,
404,12329,,,,,
378,12341,,,,,
375,12352,,,,,
365,12364,,,,,
348,12376,,,,,
361,12387,,,,,
341,12398,,,,,
361,12409,,,,,
343,12421,,,,,
354,12433,,,,,
356,12444,,,,,
347,12455,,,,,
364,12467,,,,,
345,12478,,,,,
366,12489,,,,,
349,12502,,,,,
359,12513,,,,,
359,12524,,,,,
349,12535,,,,,
366,12547,,,,,
346,12559,,,,,
366,12570,,,,,
349,12581,,,,,
359,12593,,,,,
360,12604,,,,,
350,12615,,,,,
368,12627,,,,,
350,12639,,,,,
372,12650,,,,,
355,12661,,,,,
363,12673,,,,,
363,12684,,,,,
351,12696,,,,,
369,12707,,,,,
349,12719,,,,,
368,12730,,,,,
352,12741,,,,,
392,12752,,,,,
433,12765,,,,,
435,12776,,,,,
392,12787,,,,,
358,12798,,,,,
377,12810,,,,,
357,12821,,,,,
365,12833,,,,,
367,12845,,,,,
358,12856,,,,,
376,12867,,,,,
359,12878,,,,,
381,12891,,,,,
367,12902,,,,,
379,12913,,,,,
384,12924,,,,,
377,12936,,,,,
399,12947,,,,,
382,12959,,,,,
405,12971,,,,,
388,12982,,,,,
391,12993,,,,,
383,13004,,,,,
360,13016,,,,,
368,13028,,,,,
343,13039,,,,,
361,13050,,,,,
344,13062,,,,,
352,13073,,,,,
355,13084,,,,,
344,13096,,,,,
362,13108,,,,,
343,13119,,,,,
365,13130,,,,,
349,13142,,,,,
357,13153,,,,,
360,13165,,,,,
349,13176,,,,,
366,13188,,,,,
346,13199,,,,,
366,13210,,,,,
350,13221,,,,,
358,13234,,,,,
361,13245,,,,,
349,13256,,,,,
367,13267,,,,,
347,13279,,,,,
367,13291,,,,,
352,13302,,,,,
359,13314,,,,,
363,13325,,,,,
353,13336,,,,,
372,13347,,,,,
355,13360,,,,,
373,13371,,,,,
357,13382,,,,,
362,13393,,,,,
365,13405,,,,,
354,13416,,,,,
371,13428,,,,,
351,13440,,,,,
373,13451,,,,,
390,13462,,,,,
436,13473,,,,,
447,13485,,,,,
374,13497,,,,,
382,13508,,,,,
360,13519,,,,,
377,13531,,,,,
361,13542,,,,,
368,13553,,,,,
373,13565,,,,,
362,13577,,,,,
382,13588,,,,,
364,13599,,,,,
386,13611,,,,,
374,13623,,,,,
384,13634,,,,,
392,13645,,,,,
383,13657,,,,,
404,13668,,,,,
387,13679,,,,,
407,13691,,,,,
387,13703,,,,,
383,13714,,,,,
374,13725,,,,,
352,13736,,,,,
364,13748,,,,,
343,13760,,,,,
360,13771,,,,,
347,13783,,,,,
353,13794,,,,,
357,13805,,,,,
345,13816,,,,,
364,13829,,,,,
345,13840,,,,,
364,13851,,,,,
351,13862,,,,,
357,13874,,,,,
361,13885,,,,,
349,13897,,,,,
366,13908,,,,,
347,13920,,,,,
365,13931,,,,,
351,13942,,,,,
356,13954,,,,,
361,13966,,,,,
349,13977,,,,,
366,13988,,,,,
347,14000,,,,,
366,14011,,,,,
354,14023,,,,,
359,14034,,,,,
366,14046,,,,,
356,14057,,,,,
370,14068,,,,,
351,14080,,,,,
367,14092,,,,,
355,14103,,,,,
360,14114,,,,,
364,14126,,,,,
352,14137,,,,,
379,14148,,,,,
404,14160,,,,,
444,14172,,,,,
407,14183,,,,,
369,14194,,,,,
374,14205,,,,,
359,14217,,,,,
372,14229,,,,,
357,14240,,,,,
373,14252,,,,,
364,14263,,,,,
369,14274,,,,,
375,14285,,,,,
366,14298,,,,,
383,14309,,,,,
373,14320,,,,,
387,14331,,,,,
385,14343,,,,,
390,14355,,,,,
398,14366,,,,,
390,14377,,,,,
400,14389,,,,,
380,14400,,,,,
377,14411,,,,,
359,14424,,,,,
352,14435,,,,,
353,14446,,,,,
342,14457,,,,,
353,14469,,,,,
341,14480,,,,,
352,14492,,,,,
346,14503,,,,,
348,14515,,,,,
354,14526,,,,,
345,14537,,,,,
357,14548,,,,,
346,14561,,,,,
356,14572,,,,,
350,14583,,,,,
351,14595,,,,,
356,14606,,,,,
346,14617,,,,,
357,14629,,,,,
346,14641,,,,,
356,14652,,,,,
350,14663,,,,,
350,14674,,,,,
357,14686,,,,,
348,14698,,,,,
361,14709,,,,,
351,14721,,,,,
361,14732,,,,,
353,14743,,,,,
352,14755,,,,,
358,14767,,,,,
349,14778,,,,,
360,14789,,,,,
347,14800,,,,,
360,14812,,,,,
390,14824,,,,,
426,14835,,,,,
439,14846,,,,,
365,14858,,,,,
370,14869,,,,,
356,14880,,,,,
363,14893,,,,,
357,14904,,,,,
357,14915,,,,,
365,14926,,,,,
357,14938,,,,,
370,14949,,,,,
361,14961,,,,,
373,14972,,,,,
371,14984,,,,,
374,14995,,,,,
386,15006,,,,,
379,15017,,,,,
396,15030,,,,,
385,15041,,,,,
397,15052,,,,,
383,15064,,,,,
369,15075,,,,,
365,15087,,,,,
343,15098,,,,,
354,15110,,,,,
335,15121,,,,,
349,15132,,,,,
341,15143,,,,,
341,15156,,,,,
349,15167,,,,,
337,15178,,,,,
355,15190,,,,,
339,15201,,,,,
354,15212,,,,,
346,15224,,,,,
347,15236,,,,,
355,15247,,,,,
341,15258,,,,,
357,15269,,,,,
339,15281,,,,,
355,15293,,,,,
346,15304,,,,,
346,15315,,,,,
354,15327,,,,,
340,15338,,,,,
357,15349,,,,,
339,15362,,,,,
354,15373,,,,,
346,15384,,,,,
346,15395,,,,,
354,15407,,,,,
344,15418,,,,,
357,15430,,,,,
349,15441,,,,,
358,15453,,,,,
352,15464,,,,,
349,15475,,,,,
355,15488,,,,,
346,15499,,,,,
357,15510,,,,,
345,15521,,,,,
355,15533,,,,,
377,15544,,,,,
416,15556,,,,,
442,15567,,,,,
378,15579,,,,,
370,15590,,,,,
356,15601,,,,,
361,15612,,,,,
356,15625,,,,,
354,15636,,,,,
363,15647,,,,,
354,15659,,,,,
368,15670,,,,,
359,15681,,,,,
370,15693,,,,,
370,15705,,,,,
371,15716,,,,,
382,15727,,,,,
377,15738,,,,,
390,15750,,,,,
384,15762,,,,,
392,15773,,,,,
386,15784,,,,,
374,15796,,,,,
366,15807,,,,,
349,15819,,,,,
350,15831,,,,,
339,15842,,,,,
344,15853,,,,,
342,15864,,,,,
340,15876,,,,,
348,15888,,,,,
340,15899,,,,,
349,15910,,,,,
341,15922,,,,,
347,15933,,,,,
346,15944,,,,,
344,15956,,,,,
350,15968,,,,,
342,15979,,,,,
350,15990,,,,,
343,16002,,,,,
348,16013,,,,,
346,16025,,,,,
343,16036,,,,,
350,16048,,,,,
342,16059,,,,,
351,16070,,,,,
343,16081,,,,,
349,16094,,,,,
348,16105,,,,,
345,16116,,,,,
352,16128,,,,,
344,16139,,,,,
353,16150,,,,,
346,16162,,,,,
351,16174,,,,,
350,16185,,,,,
348,16196,,,,,
355,16207,,,,,
349,16220,,,,,
359,16231,,,,,
352,16242,,,,,
355,16253,,,,,
352,16265,,,,,
349,16276,,,,,
356,16288,,,,,
349,16300,,,,,
354,16311,,,,,
348,16322,,,,,
377,16333,,,,,
417,16345,,,,,
433,16357,,,,,
392,16368,,,,,
360,16379,,,,,
365,16391,,,,,
355,16402,,,,,
357,16413,,,,,
357,16425,,,,,
355,16437,,,,,
361,16448,,,,,
357,16459,,,,,
366,16471,,,,,
363,16482,,,,,
370,16494,,,,,
371,16505,,,,,
374,16517,,,,,
382,16528,,,,,
380,16539,,,,,
389,16551,,,,,
384,16563,,,,,
386,16574,,,,,
376,16585,,,,,
362,16596,,,,,
356,16608,,,,,
343,16620,,,,,
346,16631,,,,,
339,16643,,,,,
343,16654,,,,,
342,16665,,,,,
341,16676,,,,,
346,16689,,,,,
341,16700,,,,,
349,16711,,,,,
343,16722,,,,,
347,16734,,,,,
346,16745,,,,,
344,16757,,,,,
348,16769,,,,,
343,16780,,,,,
349,16791,,,,,
343,16802,,,,,
347,16814,,,,,
346,16826,,,,,
345,16837,,,,,
349,16848,,,,,
343,16860,,,,,
350,16871,,,,,
344,16882,,,,,
349,16894,,,,,
348,16906,,,,,
347,16917,,,,,
352,16928,,,,,
346,16940,,,,,
352,16952,,,,,
347,16963,,,,,
351,16974,,,,,
351,16986,,,,,
349,16997,,,,,
355,17008,,,,,
349,17020,,,,,
356,17032,,,,,
351,17043,,,,,
357,17054,,,,,
359,17065,,,,,
357,17077,,,,,
360,17089,,,,,
352,17100,,,,,
358,17112,,,,,
353,17123,,,,,
357,17134,,,,,
355,17145,,,,,
355,17158,,,,,
394,17169,,,,,
426,17180,,,,,
439,17191,,,,,
374,17203,,,,,
367,17214,,,,,
364,17226,,,,,
359,17238,,,,,
363,17249,,,,,
358,17260,,,,,
365,17271,,,,,
360,17284,,,,,
366,17295,,,,,
367,17306,,,,,
367,17317,,,,,
375,17329,,,,,
372,17340,,,,,
382,17352,,,,,
380,17363,,,,,
386,17375,,,,,
389,17386,,,,,
387,17397,,,,,
389,17409,,,,,
375,17421,,,,,
369,17432,,,,,
354,17443,,,,,
350,17455,,,,,
347,17466,,,,,
343,17477,,,,,
348,17489,,,,,
343,17501,,,,,
350,17512,,,,,
345,17523,,,,,
349,17534,,,,,
349,17546,,,,,
347,17558,,,,,
352,17569,,,,,
347,17581,,,,,
353,17592,,,,,
347,17603,,,,,
350,17614,,,,,
350,17627,,,,,
347,17638,,,,,
352,17649,,,,,
346,17660,,,,,
352,17672,,,,,
347,17684,,,,,
350,17695,,,,,
350,17707,,,,,
347,17718,,,,,
352,17729,,,,,
347,17740,,,,,
353,17753,,,,,
349,17764,,,,,
353,17775,,,,,
354,17786,,,,,
353,17798,,,,,
359,17809,,,,,
351,17821,,,,,
355,17832,,,,,
349,17844,,,,,
352,17855,,,,,
353,17866,,,,,
349,17878,,,,,
355,17890,,,,,
376,17901,,,,,
421,17912,,,,,
430,17924,,,,,
378,17935,,,,,
363,17946,,,,,
359,17958,,,,,
361,17970,,,,,
354,17981,,,,,
361,17992,,,,,
357,18003,,,,,
360,18016,,,,,
362,18027,,,,,
362,18038,,,,,
369,18050,,,,,
367,18061,,,,,
377,18072,,,,,
375,18084,,,,,
382,18096,,,,,
387,18107,,,,,
386,18118,,,,,
392,18129,,,,,
383,18141,,,,,
379,18153,,,,,
361,18164,,,,,
353,18176,,,,,
346,18187,,,,,
340,18198,,,,,
344,18209,,,,,
338,18222,,,,,
345,18233,,,,,
340,18244,,,,,
344,18255,,,,,
345,18267,,,,,
343,18278,,,,,
349,18290,,,,,
343,18301,,,,,
350,18313,,,,,
344,18324,,,,,
347,18335,,,,,
348,18347,,,,,
344,18359,,,,,
349,18370,,,,,
343,18381,,,,,
350,18393,,,,,
344,18404,,,,,
347,18416,,,,,
348,18427,,,,,
345,18439,,,,,
351,18450,,,,,
345,18461,,,,,
351,18472,,,,,
347,18485,,,,,
349,18496,,,,,
351,18507,,,,,
348,18519,,,,,
354,18530,,,,,
348,18541,,,,,
357,18553,,,,,
354,18565,,,,,
357,18576,,,,,
356,18587,,,,,
351,18598,,,,,
355,18610,,,,,
350,18622,,,,,
356,18633,,,,,
350,18644,,,,,
354,18656,,,,,
385,18667,,,,,
419,18678,,,,,
439,18691,,,,,
375,18702,,,,,
367,18713,,,,,
360,18724,,,,,
359,18736,,,,,
359,18748,,,,,
356,18759,,,,,
363,18770,,,,,
358,18782,,,,,
366,18793,,,,,
363,18804,,,,,
368,18817,,,,,
372,18828,,,,,
372,18839,,,,,
381,18850,,,,,
379,18862,,,,,
389,18873,,,,,
387,18885,,,,,
390,18896,,,,,
388,18908,,,,,
374,18919,,,,,
366,18930,,,,,
350,18941,,,,,
350,18954,,,,,
342,18965,,,,,
343,18976,,,,,
344,18988,,,,,
340,18999,,,,,
346,19010,,,,,
341,19022,,,,,
348,19034,,,,,
344,19045,,,,,
346,19056,,,,,
348,19067,,,,,
344,19079,,,,,
350,19091,,,,,
344,19102,,,,,
350,19113,,,,,
345,19125,,,,,
347,19136,,,,,
348,19148,,,,,
345,19160,,,,,
350,19171,,,,,
345,19182,,,,,
351,19193,,,,,
347,19205,,,,,
348,19217,,,,,
350,19228,,,,,
347,19239,,,,,
352,19251,,,,,
347,19262,,,,,
353,19273,,,,,
349,19286,,,,,
351,19297,,,,,
353,19308,,,,,
350,19319,,,,,
358,19331,,,,,
354,19342,,,,,
360,19354,,,,,
354,19365,,,,,
354,19377,,,,,
355,19388,,,,,
351,19399,,,,,
357,19410,,,,,
350,19423,,,,,
360,19434,,,,,
388,19445,,,,,
425,19457,,,,,
432,19468,,,,,
370,19480,,,,,
367,19491,,,,,
359,19503,,,,,
361,19514,,,,,
357,19525,,,,,
359,19536,,,,,
361,19549,,,,,
359,19560,,,,,
367,19571,,,,,
362,19582,,,,,
371,19594,,,,,
370,19605,,,,,
374,19617,,,,,
380,19629,,,,,
379,19640,,,,,
388,19651,,,,,
385,19662,,,,,
391,19674,,,,,
383,19686,,,,,
374,19697,,,,,
364,19708,,,,,
350,19720,,,,,
350,19731,,,,,
341,19742,,,,,
346,19755,,,,,
342,19766,,,,,
344,19777,,,,,
346,19788,,,,,
343,19800,,,,,
349,19811,,,,,
344,19823,,,,,
350,19834,,,,,
346,19846,,,,,
348,19857,,,,,
350,19868,,,,,
346,19880,,,,,
351,19892,,,,,
345,19903,,,,,
351,19914,,,,,
347,19926,,,,,
349,19937,,,,,
351,19949,,,,,
347,19960,,,,,
352,19972,,,,,
347,19983,,,,,
353,19994,,,,,
349,20005,,,,,
351,20018,,,,,
353,20029,,,,,
350,20040,,,,,
355,20051,,,,,
351,20063,,,,,
357,20074,,,,,
355,20086,,,,,
359,20098,,,,,
359,20109,,,,,
354,20120,,,,,
358,20131,,,,,
352,20143,,,,,
358,20155,,,,,
353,20166,,,,,
354,20177,,,,,
367,20189,,,,,
409,20200,,,,,
438,20212,,,,,
406,20224,,,,,
367,20235,,,,,
362,20246,,,,,
361,20257,,,,,
361,20269,,,,,
356,20281,,,,,
363,20292,,,,,
358,20303,,,,,
366,20315,,,,,
363,20326,,,,,
367,20337,,,,,
371,20349,,,,,
370,20361,,,,,
380,20372,,,,,
377,20383,,,,,
387,20395,,,,,
387,20406,,,,,
390,20418,,,,,
391,20429,,,,,
381,20441,,,,,
374,20452,,,,,
355,20463,,,,,
353,20474,,,,,
345,20487,,,,,
343,20498,,,,,
345,20509,,,,,
341,20520,,,,,
346,20532,,,,,
341,20543,,,,,
348,20555,,,,,
345,20567,,,,,
346,20578,,,,,
349,20589,,,,,
345,20600,,,,,
351,20613,,,,,
345,20624,,,,,
351,20635,,,,,
348,20646,,,,,
348,20658,,,,,
350,20669,,,,,
345,20681,,,,,
351,20692,,,,,
345,20704,,,,,
351,20715,,,,,
347,20726,,,,,
349,20738,,,,,
351,20750,,,,,
348,20761,,,,,
355,20772,,,,,
351,20784,,,,,
358,20795,,,,,
352,20806,,,,,
351,20818,,,,,
352,20830,,,,,
349,20841,,,,,
355,20852,,,,,
348,20864,,,,,
354,20875,,,,,
372,20887,,,,,
419,20898,,,,,
437,20910,,,,,
382,20921,,,,,
364,20932,,,,,
357,20944,,,,,
360,20956,,,,,
355,20967,,,,,
356,20978,,,,,
359,20989,,,,,
356,21001,,,,,
364,21013,,,,,
360,21024,,,,,
369,21036,,,,,
368,21047,,,,,
372,21058,,,,,
378,21069,,,,,
378,21082,,,,,
388,21093,,,,,
386,21104,,,,,
392,21115,,,,,
385,21127,,,,,
375,21138,,,,,
365,21150,,,,,
350,21161,,,,,
350,21173,,,,,
340,21184,,,,,
345,21195,,,,,
341,21207,,,,,
342,21219,,,,,
345,21230,,,,,
341,21241,,,,,
348,21253,,,,,
343,21264,,,,,
349,21275,,,,,
346,21287,,,,,
347,21299,,,,,
350,21310,,,,,
345,21321,,,,,
351,21332,,,,,
345,21345,,,,,
350,21356,,,,,
347,21367,,,,,
348,21379,,,,,
350,21390,,,,,
345,21401,,,,,
352,21413,,,,,
346,21425,,,,,
352,21436,,,,,
349,21447,,,,,
349,21458,,,,,
352,21470,,,,,
348,21482,,,,,
354,21493,,,,,
349,21505,,,,,
355,21516,,,,,
354,21527,,,,,
356,21538,,,,,
360,21551,,,,,
353,21562,,,,,
357,21573,,,,,
350,21584,,,,,
356,21596,,,,,
353,21607,,,,,
352,21619,,,,,
356,21630,,,,,
375,21642,,,,,
422,21653,,,,,
435,21664,,,,,
394,21677,,,,,
364,21688,,,,,
363,21699,,,,,
362,21710,,,,,
356,21722,,,,,
362,21733,,,,,
357,21745,,,,,
364,21756,,,,,
362,21768,,,,,
365,21779,,,,,
370,21790,,,,,
368,21801,,,,,
377,21814,,,,,
375,21825,,,,,
385,21836,,,,,
385,21848,,,,,
389,21859,,,,,
392,21870,,,,,
385,21882,,,,,
382,21894,,,,,
363,21905,,,,,
358,21916,,,,,
348,21927,,,,,
346,21939,,,,,
347,21951,,,,,
342,21962,,,,,
348,21974,,,,,
342,21985,,,,,
348,21996,,,,,
346,22007,,,,,
348,22020,,,,,
351,22031,,,,,
346,22042,,,,,
352,22053,,,,,
347,22065,,,,,
352,22077,,,,,
349,22088,,,,,
349,22099,,,,,
351,22111,,,,,
347,22122,,,,,
352,22133,,,,,
347,22146,,,,,
352,22157,,,,,
349,22168,,,,,
349,22179,,,,,
352,22191,,,,,
348,22202,,,,,
354,22214,,,,,
348,22225,,,,,
354,22237,,,,,
351,22248,,,,,
352,22259,,,,,
355,22270,,,,,
353,22283,,,,,
361,22294,,,,,
354,22305,,,,,
358,22317,,,,,
353,22328,,,,,
353,22339,,,,,
356,22351,,,,,
351,22363,,,,,
356,22374,,,,,
356,22385,,,,,
397,22396,,,,,
428,22409,,,,,
429,22420,,,,,
372,22431,,,,,
362,22443,,,,,
365,22454,,,,,
356,22465,,,,,
361,22477,,,,,
358,22489,,,,,
360,22500,,,,,
364,22511,,,,,
361,22522,,,,,
369,22534,,,,,
366,22546,,,,,
374,22557,,,,,
375,22568,,,,,
379,22580,,,,,
386,22591,,,,,
384,22602,,,,,
393,22615,,,,,
387,22626,,,,,
387,22637,,,,,
372,22648,,,,,
360,22660,,,,,
354,22671,,,,,
344,22683,,,,,
347,22694,,,,,
341,22706,,,,,
347,22717,,,,,
343,22728,,,,,
345,22739,,,,,
347,22752,,,,,
344,22763,,,,,
350,22774,,,,,
345,22786,,,,,
351,22797,,,,,
348,22809,,,,,
349,22820,,,,,
351,22832,,,,,
347,22843,,,,,
352,22854,,,,,
346,22865,,,,,
351,22878,,,,,
348,22889,,,,,
349,22900,,,,,
351,22912,,,,,
347,22923,,,,,
353,22934,,,,,
347,22946,,,,,
353,22958,,,,,
351,22969,,,,,
351,22980,,,,,
356,22991,,,,,
354,23003,,,,,
359,23015,,,,,
352,23026,,,,,
355,23037,,,,,
352,23049,,,,,
352,23060,,,,,
355,23071,,,,,
349,23084,,,,,
357,23095,,,,,
383,23106,,,,,
426,23117,,,,,
434,23129,,,,,
375,23141,,,,,
366,23152,,,,,
359,23163,,,,,
362,23175,,,,,
355,23186,,,,,
361,23197,,,,,
359,23209,,,,,
361,23221,,,,,
365,23232,,,,,
363,23243,,,,,
371,23255,,,,,
368,23266,,,,,
378,23278,,,,,
378,23289,,,,,
383,23301,,,,,
389,23312,,,,,
387,23323,,,,,
393,23334,,,,,
382,23347,,,,,
376,23358,,,,,
360,23369,,,,,
351,23380,,,,,
348,23392,,,,,
342,23403,,,,,
346,23415,,,,,
340,23427,,,,,
346,23438,,,,,
343,23449,,,,,
344,23460,,,,,
348,23472,,,,,
344,23484,,,,,
350,23495,,,,,
344,23506,,,,,
350,23518,,,,,
347,23529,,,,,
348,23541,,,,,
351,23553,,,,,
346,23564,,,,,
352,23575,,,,,
345,23586,,,,,
351,23598,,,,,
348,23610,,,,,
349,23621,,,,,
351,23632,,,,,
347,23644,,,,,
354,23655,,,,,
350,23666,,,,,
357,23678,,,,,
355,23690,,,,,
353,23701,,,,,
353,23712,,,,,
348,23724,,,,,
354,23735,,,,,
349,23747,,,,,
353,23758,,,,,
349,23770,,,,,
368,23781,,,,,
413,23792,,,,,
435,23803,,,,,
399,23816,,,,,
359,23827,,,,,
364,23838,,,,,
357,23849,,,,,
356,23861,,,,,
358,23873,,,,,
355,23884,,,,,
362,23896,,,,,
358,23907,,,,,
366,23918,,,,,
365,23929,,,,,
369,23942,,,,,
375,23953,,,,,
375,23964,,,,,
385,23975,,,,,
383,23987,,,,,
392,23998,,,,,
390,24010,,,,,
387,24022,,,,,
379,24033,,,,,
362,24044,,,,,
357,24055,,,,,
344,24067,,,,,
347,24079,,,,,
342,24090,,,,,
342,24101,,,,,
345,24113,,,,,
342,24124,,,,,
348,24135,,,,,
342,24147,,,,,
349,24159,,,,,
347,24170,,,,,
348,24181,,,,,
350,24193,,,,,
347,24204,,,,,
352,24216,,,,,
346,24227,,,,,
352,24239,,,,,
348,24250,,,,,
349,24261,,,,,
351,24273,,,,,
347,24285,,,,,
352,24296,,,,,
347,24307,,,,,
353,24318,,,,,
349,24330,,,,,
351,24342,,,,,
353,24353,,,,,
350,24365,,,,,
358,24376,,,,,
354,24387,,,,,
360,24398,,,,,
354,24411,,,,,
354,24422,,,,,
355,24433,,,,,
351,24444,,,,,
357,24456,,,,,
350,24467,,,,,
358,24479,,,,,
382,24491,,,,,
422,24502,,,,,
434,24513,,,,,
374,24524,,,,,
367,24536,,,,,
360,24548,,,,,
364,24559,,,,,
359,24570,,,,,
361,24582,,,,,
364,24593,,,,,
361,24605,,,,,
368,24616,,,,,
365,24628,,,,,
373,24639,,,,,
372,24650,,,,,
377,24662,,,,,
383,24674,,,,,
383,24685,,,,,
393,24696,,,,,
390,24708,,,,,
396,24719,,,,,
388,24730,,,,,
378,24742,,,,,
367,24754,,,,,
352,24765,,,,,
351,24776,,,,,
343,24787,,,,,
347,24799,,,,,
343,24811,,,,,
345,24822,,,,,
348,24834,,,,,
344,24845,,,,,
351,24856,,,,,
345,24867,,,,,
351,24880,,,,,
348,24891,,,,,
350,24902,,,,,
352,24913,,,,,
348,24925,,,,,
353,24936,,,,,
348,24948,,,,,
353,24960,,,,,
348,24971,,,,,
350,24982,,,,,
352,24993,,,,,
347,25006,,,,,
353,25017,,,,,
348,25028,,,,,
354,25039,,,,,
352,25051,,,,,
355,25062,,,,,
357,25074,,,,,
352,25085,,,,,
355,25097,,,,,
349,25108,,,,,
355,25119,,,,,
351,25131,,,,,
351,25143,,,,,
354,25154,,,,,
371,25165,,,,,
418,25177,,,,,
429,25188,,,,,
385,25199,,,,,
360,25211,,,,,
361,25223,,,,,
359,25234,,,,,
355,25245,,,,,
361,25256,,,,,
356,25268,,,,,
363,25280,,,,,
361,25291,,,,,
364,25303,,,,,
369,25314,,,,,
368,25325,,,,,
377,25337,,,,,
375,25349,,,,,
385,25360,,,,,
386,25371,,,,,
390,25382,,,,,
392,25394,,,,,
384,25406,,,,,
378,25417,,,,,
359,25428,,,,,
354,25440,,,,,
345,25451,,,,,
343,25462,,,,,
344,25475,,,,,
340,25486,,,,,
345,25497,,,,,
340,25508,,,,,
346,25520,,,,,
343,25531,,,,,
346,25543,,,,,
348,25554,,,,,
345,25566,,,,,
351,25577,,,,,
345,25588,,,,,
351,25600,,,,,
347,25612,,,,,
349,25623,,,,,
349,25634,,,,,
346,25646,,,,,
351,25657,,,,,
345,25668,,,,,
351,25680,,,,,
347,25692,,,,,
349,25703,,,,,
351,25714,,,,,
347,25725,,,,,
353,25738,,,,,
347,25749,,,,,
354,25760,,,,,
350,25772,,,,,
352,25783,,,,,
355,25794,,,,,
354,25806,,,,,
360,25818,,,,,
352,25829,,,,,
357,25840,,,,,
351,25851,,,,,
353,25863,,,,,
355,25875,,,,,
351,25886,,,,,
356,25897,,,,,
370,25909,,,,,
416,25920,,,,,
436,25931,,,,,
396,25944,,,,,
366,25955,,,,,
361,25966,,,,,
363,25977,,,,,
355,25989,,,,,
361,26000,,,,,
358,26012,,,,,
361,26023,,,,,
364,26035,,,,,
363,26046,,,,,
370,26057,,,,,
367,26070,,,,,
376,26081,,,,,
376,26092,,,,,
382,26103,,,,,
387,26115,,,,,
387,26126,,,,,
394,26138,,,,,
385,26149,,,,,
382,26161,,,,,
365,26172,,,,,
356,26183,,,,,
350,26194,,,,,
343,26207,,,,,
347,26218,,,,,
341,26229,,,,,
347,26241,,,,,
343,26252,,,,,
345,26263,,,,,
347,26275,,,,,
344,26287,,,,,
351,26298,,,,,
345,26309,,,,,
352,26320,,,,,
348,26332,,,,,
350,26344,,,,,
350,26355,,,,,
346,26366,,,,,
351,26378,,,,,
346,26389,,,,,
351,26400,,,,,
346,26413,,,,,
348,26424,,,,,
350,26435,,,,,
347,26446,,,,,
352,26458,,,,,
346,26470,,,,,
352,26481,,,,,
348,26492,,,,,
351,26504,,,,,
352,26515,,,,,
349,26526,,,,,
354,26539,,,,,
349,26550,,,,,
355,26561,,,,,
351,26572,,,,,
353,26584,,,,,
356,26595,,,,,
353,26607,,,,,
360,26618,,,,,
357,26630,,,,,
363,26641,,,,,
356,26652,,,,,
356,26663,,,,,
357,26676,,,,,
354,26687,,,,,
359,26698,,,,,
352,26710,,,,,
361,26721,,,,,
387,26732,,,,,
426,26744,,,,,
438,26756,,,,,
376,26767,,,,,
369,26778,,,,,
361,26789,,,,,
364,26802,,,,,
358,26813,,,,,
361,26824,,,,,
363,26835,,,,,
360,26847,,,,,
367,26858,,,,,
364,26870,,,,,
372,26882,,,,,
370,26893,,,,,
376,26904,,,,,
380,26915,,,,,
381,26927,,,,,
390,26939,,,,,
387,26950,,,,,
395,26961,,,,,
386,26973,,,,,
378,26984,,,,,
367,26995,,,,,
353,27008,,,,,
352,27019,,,,,
343,27030,,,,,
347,27041,,,,,
343,27053,,,,,
346,27064,,,,,
347,27076,,,,,
343,27087,,,,,
350,27099,,,,,
345,27110,,,,,
352,27121,,,,,
347,27132,,,,,
350,27145,,,,,
351,27156,,,,,
347,27167,,,,,
352,27179,,,,,
347,27190,,,,,
352,27202,,,,,
347,27213,,,,,
349,27225,,,,,
350,27236,,,,,
347,27247,,,,,
352,27258,,,,,
346,27271,,,,,
353,27282,,,,,
348,27293,,,,,
351,27304,,,,,
352,27316,,,,,
349,27327,,,,,
354,27339,,,,,
349,27351,,,,,
355,27362,,,,,
350,27373,,,,,
354,27384,,,,,
355,27396,,,,,
355,27408,,,,,
361,27419,,,,,
354,27430,,,,,
358,27442,,,,,
352,27453,,,,,
355,27464,,,,,
356,27476,,,,,
352,27488,,,,,
357,27499,,,,,
364,27510,,,,,
413,27522,,,,,
431,27534,,,,,
405,27545,,,,,
365,27556,,,,,
361,27568,,,,,
364,27579,,,,,
357,27590,,,,,
362,27602,,,,,
358,27614,,,,,
362,27625,,,,,
364,27636,,,,,
363,27648,,,,,
370,27659,,,,,
367,27671,,,,,
377,27682,,,,,
376,27694,,,,,
382,27705,,,,,
386,27716,,,,,
387,27727,,,,,
393,27740,,,,,
387,27751,,,,,
385,27762,,,,,
368,27773,,,,,
358,27785,,,,,
351,27796,,,,,
343,27808,,,,,
346,27820,,,,,
340,27831,,,,,
346,27842,,,,,
341,27853,,,,,
345,27865,,,,,
346,27877,,,,,
343,27888,,,,,
350,27899,,,,,
344,27911,,,,,
350,27922,,,,,
346,27934,,,,,
349,27945,,,,,
349,27957,,,,,
346,27968,,,,,
351,27979,,,,,
345,27991,,,,,
351,28003,,,,,
346,28014,,,,,
349,28025,,,,,
349,28037,,,,,
347,28048,,,,,
352,28059,,,,,
346,28071,,,,,
352,28083,,,,,
348,28094,,,,,
351,28105,,,,,
351,28116,,,,,
349,28128,,,,,
354,28140,,,,,
349,28151,,,,,
357,28163,,,,,
354,28174,,,,,
359,28185,,,,,
356,28196,,,,,
352,28209,,,,,
355,28220,,,,,
350,28231,,,,,
356,28242,,,,,
350,28254,,,,,
354,28266,,,,,
371,28277,,,,,
411,28289,,,,,
438,28300,,,,,
392,28311,,,,,
366,28322,,,,,
360,28335,,,,,
359,28346,,,,,
358,28357,,,,,
356,28368,,,,,
361,28380,,,,,
357,28391,,,,,
365,28403,,,,,
362,28414,,,,,
368,28426,,,,,
370,28437,,,,,
371,28448,,,,,
380,28460,,,,,
378,28472,,,,,
389,28483,,,,,
386,28494,,,,,
392,28506,,,,,
389,28517,,,,,
378,28528,,,,,
369,28540,,,,,
353,28552,,,,,
352,28563,,,,,
342,28574,,,,,
344,28585,,,,,
343,28597,,,,,
341,28609,,,,,
346,28620,,,,,
341,28632,,,,,
348,28643,,,,,
344,28654,,,,,
348,28666,,,,,
348,28678,,,,,
346,28689,,,,,
351,28700,,,,,
345,28711,,,,,
352,28723,,,,,
346,28735,,,,,
349,28746,,,,,
348,28758,,,,,
346,28769,,,,,
351,28780,,,,,
345,28791,,,,,
351,28804,,,,,
346,28815,,,,,
350,28826,,,,,
350,28837,,,,,
348,28849,,,,,
353,28860,,,,,
347,28872,,,,,
353,28883,,,,,
348,28895,,,,,
353,28906,,,,,
352,28917,,,,,
351,28929,,,,,
355,28941,,,,,
350,28952,,,,,
356,28963,,,,,
352,28975,,,,,
356,28986,,,,,
357,28998,,,,,
357,29009,,,,,
362,29021,,,,,
355,29032,,,,,
359,29043,,,,,
353,29054,,,,,
357,29067,,,,,
357,29078,,,,,
353,29089,,,,,
360,29101,,,,,
385,29112,,,,,
428,29123,,,,,
434,29135,,,,,
381,29147,,,,,
367,29158,,,,,
363,29169,,,,,
364,29180,,,,,
357,29192,,,,,
363,29204,,,,,
359,29215,,,,,
364,29227,,,,,
365,29238,,,,,
365,29249,,,,,
372,29260,,,,,
369,29273,,,,,
379,29284,,,,,
377,29295,,,,,
384,29306,,,,,
387,29318,,,,,
388,29329,,,,,
393,29341,,,,,
385,29352,,,,,
381,29364,,,,,
364,29375,,,,,
357,29386,,,,,
350,29399,,,,,
344,29410,,,,,
347,29421,,,,,
341,29432,,,,,
348,29444,,,,,
343,29455,,,,,
347,29467,,,,,
347,29478,,,,,
346,29490,,,,,
351,29501,,,,,
346,29512,,,,,
352,29523,,,,,
347,29536,,,,,
351,29547,,,,,
350,29558,,,,,
348,29570,,,,,
351,29581,,,,,
346,29592,,,,,
351,29604,,,,,
346,29616,,,,,
350,29627,,,,,
349,29638,,,,,
348,29649,,,,,
352,29661,,,,,
347,29673,,,,,
353,29684,,,,,
348,29696,,,,,
352,29707,,,,,
351,29718,,,,,
349,29730,,,,,
354,29742,,,,,
349,29753,,,,,
356,29764,,,,,
351,29775,,,,,
355,29787,,,,,
354,29799,,,,,
353,29810,,,,,
359,29821,,,,,
356,29833,,,,,
363,29844,,,,,
355,29855,,,,,
357,29868,,,,,
355,29879,,,,,
355,29890,,,,,
358,29901,,,,,
352,29913,,,,,
360,29924,,,,,
382,29936,,,,,
424,29947,,,,,
437,29959,,,,,
380,29970,,,,,
368,29981,,,,,
361,29992,,,,,
364,30005,,,,,
357,30016,,,,,
362,30027,,,,,
362,30039,,,,,
362,30050,,,,,
367,30061,,,,,
364,30073,,,,,
373,30085,,,,,
370,30096,,,,,
377,30107,,,,,
380,30118,,,,,
383,30131,,,,,
391,30142,,,,,
389,30153,,,,,
396,30164,,,,,
387,30176,,,,,
383,30187,,,,,
368,30199,,,,,
356,30211,,,,,
352,30222,,,,,
344,30233,,,,,
347,30244,,,,,
342,30256,,,,,
346,30268,,,,,
345,30279,,,,,
345,30290,,,,,
350,30302,,,,,
345,30313,,,,,
351,30324,,,,,
347,30337,,,,,
351,30348,,,,,
350,30359,,,,,
348,30370,,,,,
352,30382,,,,,
347,30393,,,,,
353,30405,,,,,
347,30416,,,,,
351,30428,,,,,
350,30439,,,,,
349,30450,,,,,
353,30462,,,,,
347,30474,,,,,
354,30485,,,,,
349,30496,,,,,
353,30508,,,,,
352,30519,,,,,
351,30531,,,,,
355,30542,,,,,
350,30554,,,,,
358,30565,,,,,
355,30576,,,,,
359,30587,,,,,
356,30600,,,,,
353,30611,,,,,
357,30622,,,,,
352,30633,,,,,
358,30645,,,,,
351,30656,,,,,
361,30668,,,,,
396,30680,,,,,
425,30691,,,,,
427,30702,,,,,
366,30713,,,,,
366,30725,,,,,
359,30737,,,,,
361,30748,,,,,
359,30759,,,,,
358,30771,,,,,
363,30782,,,,,
360,30793,,,,,
368,30806,,,,,
364,30817,,,,,
371,30828,,,,,
372,30839,,,,,
374,30851,,,,,
383,30863,,,,,
382,30874,,,,,
392,30885,,,,,
389,30897,,,,,
394,30908,,,,,
386,30919,,,,,
373,30931,,,,,
364,30943,,,,,
349,30954,,,,,
349,30965,,,,,
341,30977,,,,,
345,30988,,,,,
343,31000,,,,,
342,31011,,,,,
346,31023,,,,,
341,31034,,,,,
348,31045,,,,,
343,31056,,,,,
349,31069,,,,,
347,31080,,,,,
346,31091,,,,,
350,31102,,,,,
345,31114,,,,,
351,31125,,,,,
345,31137,,,,,
350,31149,,,,,
348,31160,,,,,
346,31171,,,,,
351,31182,,,,,
345,31195,,,,,
351,31206,,,,,
346,31217,,,,,
351,31228,,,,,
349,31240,,,,,
349,31251,,,,,
352,31263,,,,,
349,31275,,,,,
357,31286,,,,,
353,31297,,,,,
357,31308,,,,,
353,31320,,,,,
351,31332,,,,,
354,31343,,,,,
350,31354,,,,,
355,31366,,,,,
349,31377,,,,,
357,31388,,,,,
384,31400,,,,,
419,31412,,,,,
434,31423,,,,,
371,31434,,,,,
366,31446,,,,,
359,31457,,,,,
360,31469,,,,,
357,31480,,,,,
357,31492,,,,,
362,31503,,,,,
359,31514,,,,,
367,31525,,,,,
363,31538,,,,,
370,31549,,,,,
371,31560,,,,,
374,31571,,,,,
382,31583,,,,,
382,31595,,,,,
391,31606,,,,,
388,31618,,,,,
393,31629,,,,,
386,31640,,,,,
375,31651,,,,,
366,31664,,,,,
351,31675,,,,,
351,31686,,,,,
342,31697,,,,,
346,31709,,,,,
345,31720,,,,,
344,31732,,,,,
348,31744,,,,,
343,31755,,,,,
350,31766,,,,,
345,31777,,,,,
350,31789,,,,,
349,31801,,,,,
349,31812,,,,,
352,31823,,,,,
348,31835,,,,,
353,31846,,,,,
347,31857,,,,,
352,31869,,,,,
350,31881,,,,,
349,31892,,,,,
353,31903,,,,,
348,31915,,,,,
354,31927,,,,,
348,31938,,,,,
353,31949,,,,,
351,31961,,,,,
351,31972,,,,,
355,31983,,,,,
351,31995,,,,,
359,32007,,,,,
355,32018,,,,,
359,32029,,,,,
356,32040,,,,,
353,32052,,,,,
356,32064,,,,,
352,32075,,,,,
357,32087,,,,,
351,32098,,,,,
360,32109,,,,,
391,32120,,,,,
425,32133,,,,,
432,32144,,,,,
369,32155,,,,,
367,32166,,,,,
359,32178,,,,,
361,32189,,,,,
358,32201,,,,,
359,32212,,,,,
363,32224,,,,,
360,32235,,,,,
367,32246,,,,,
364,32258,,,,,
372,32270,,,,,
372,32281,,,,,
375,32292,,,,,
383,32304,,,,,
382,32315,,,,,
392,32327,,,,,
389,32338,,,,,
394,32350,,,,,
385,32361,,,,,
374,32372,,,,,
364,32384,,,,,
350,32396,,,,,
351,32407,,,,,
343,32418,,,,,
347,32430,,,,,
345,32441,,,,,
344,32452,,,,,
349,32464,,,,,
344,32476,,,,,
350,32487,,,,,
346,32498,,,,,
351,32509,,,,,
349,32521,,,,,
349,32533,,,,,
353,32544,,,,,
348,32556,,,,,
354,32567,,,,,
348,32578,,,,,
352,32589,,,,,
350,32602,,,,,
349,32613,,,,,
353,32624,,,,,
349,32635,,,,,
354,32647,,,,,
349,32659,,,,,
353,32670,,,,,
352,32681,,,,,
352,32693,,,,,
356,32704,,,,,
354,32715,,,,,
361,32728,,,,,
355,32739,,,,,
358,32750,,,,,
354,32761,,,,,
353,32773,,,,,
357,32784,,,,,
352,32796,,,,,
358,32807,,,,,
357,32819,,,,,
397,32830,,,,,
426,32841,,,,,
424,32852,,,,,
372,32865,,,,,
361,32876,,,,,
366,32887,,,,,
358,32899,,,,,
362,32910,,,,,
360,32921,,,,,
361,32933,,,,,
366,32945,,,,,
363,32956,,,,,
371,32967,,,,,
368,32978,,,,,
376,32990,,,,,
377,33002,,,,,
381,33013,,,,,
388,33025,,,,,
387,33036,,,,,
395,33047,,,,,
390,33059,,,,,
389,33071,,,,,
375,33082,,,,,
362,33093,,,,,
356,33104,,,,,
345,33116,,,,,
349,33128,,,,,
342,33139,,,,,
347,33150,,,,,
345,33162,,,,,
345,33173,,,,,
349,33184,,,,,
345,33197,,,,,
352,33208,,,,,
347,33219,,,,,
352,33230,,,,,
350,33242,,,,,
350,33253,,,,,
353,33265,,,,,
349,33276,,,,,
354,33288,,,,,
348,33299,,,,,
353,33310,,,,,
350,33321,,,,,
350,33334,,,,,
353,33345,,,,,
349,33356,,,,,
355,33368,,,,,
349,33379,,,,,
355,33391,,,,,
353,33402,,,,,
354,33414,,,,,
359,33425,,,,,
355,33436,,,,,
359,33447,,,,,
351,33460,,,,,
356,33471,,,,,
354,33482,,,,,
354,33494,,,,,
356,33505,,,,,
352,33516,,,,,
376,33528,,,,,
412,33540,,,,,
440,33551,,,,,
394,33562,,,,,
364,33573,,,,,
366,33585,,,,,
357,33597,,,,,
361,33608,,,,,
356,33619,,,,,
363,33631,,,,,
361,33642,,,,,
363,33653,,,,,
368,33666,,,,,
366,33677,,,,,
374,33688,,,,,
372,33699,,,,,
381,33711,,,,,
383,33722,,,,,
387,33734,,,,,
393,33745,,,,,
389,33757,,,,,
392,33768,,,,,
376,33779,,,,,
368,33792,,,,,
355,33803,,,,,
349,33814,,,,,
348,33825,,,,,
343,33837,,,,,
348,33848,,,,,
343,33860,,,,,
348,33871,,,,,
346,33883,,,,,
347,33894,,,,,
351,33905,,,,,
346,33916,,,,,
353,33929,,,,,
348,33940,,,,,
353,33951,,,,,
351,33963,,,,,
350,33974,,,,,
353,33985,,,,,
348,33997,,,,,
353,34009,,,,,
348,34020,,,,,
353,34031,,,,,
350,34042,,,,,
350,34054,,,,,
353,34066,,,,,
349,34077,,,,,
355,34088,,,,,
350,34100,,,,,
355,34111,,,,,
353,34123,,,,,
352,34135,,,,,
356,34146,,,,,
352,34157,,,,,
357,34168,,,,,
353,34180,,,,,
359,34192,,,,,
359,34203,,,,,
360,34214,,,,,
361,34226,,,,,
355,34237,,,,,
359,34248,,,,,
354,34260,,,,,
359,34272,,,,,
356,34283,,,,,
356,34294,,,,,
370,34306,,,,,
406,34317,,,,,
443,34329,,,,,
418,34340,,,,,
371,34352,,,,,
366,34363,,,,,
362,34374,,,,,
363,34385,,,,,
358,34398,,,,,
365,34409,,,,,
360,34420,,,,,
367,34432,,,,,
367,34443,,,,,
368,34454,,,,,
374,34466,,,,,
372,34478,,,,,
381,34489,,,,,
379,34500,,,,,
388,34511,,,,,
388,34524,,,,,
391,34535,,,,,
393,34546,,,,,
381,34557,,,,,
376,34569,,,,,
358,34580,,,,,
355,34592,,,,,
349,34604,,,,,
347,34615,,,,,
349,34626,,,,,
344,34637,,,,,
351,34649,,,,,
345,34661,,,,,
351,34672,,,,,
349,34683,,,,,
350,34695,,,,,
353,34706,,,,,
349,34717,,,,,
355,34729,,,,,
349,34741,,,,,
355,34752,,,,,
352,34763,,,,,
351,34775,,,,,
354,34786,,,,,
349,34798,,,,,
355,34809,,,,,
349,34821,,,,,
354,34832,,,,,
351,34843,,,,,
351,34855,,,,,
355,34867,,,,,
350,34878,,,,,
357,34889,,,,,
350,34900,,,,,
356,34912,,,,,
353,34924,,,,,
353,34935,,,,,
356,34947,,,,,
352,34958,,,,,
358,34969,,,,,
353,34980,,,,,
358,34993,,,,,
355,35004,,,,,
356,35015,,,,,
359,35026,,,,,
356,35038,,,,,
364,35049,,,,,
359,35061,,,,,
362,35073,,,,,
357,35084,,,,,
357,35095,,,,,
360,35106,,,,,
355,35118,,,,,
359,35130,,,,,
355,35141,,,,,
389,35152,,,,,
426,35164,,,,,
438,35175,,,,,
387,35186,,,,,
365,35198,,,,,
369,35210,,,,,
359,35221,,,,,
363,35232,,,,,
361,35244,,,,,
362,35256,,,,,
366,35267,,,,,
363,35278,,,,,
371,35290,,,,,
367,35301,,,,,
375,35312,,,,,
375,35324,,,,,
379,35336,,,,,
386,35347,,,,,
386,35358,,,,,
394,35369,,,,,
390,35381,,,,,
392,35393,,,,,
379,35404,,,,,
368,35416,,,,,
360,35427,,,,,
349,35438,,,,,
351,35449,,,,,
343,35462,,,,,
349,35473,,,,,
346,35484,,,,,
346,35495,,,,,
350,35507,,,,,
346,35518,,,,,
352,35530,,,,,
347,35542,,,,,
353,35553,,,,,
351,35564,,,,,
351,35575,,,,,
354,35588,,,,,
349,35599,,,,,
355,35610,,,,,
349,35621,,,,,
354,35633,,,,,
351,35644,,,,,
351,35656,,,,,
354,35667,,,,,
350,35679,,,,,
355,35690,,,,,
349,35701,,,,,
355,35713,,,,,
352,35725,,,,,
352,35736,,,,,
355,35747,,,,,
351,35759,,,,,
357,35770,,,,,
351,35781,,,,,
357,35793,,,,,
355,35805,,,,,
358,35816,,,,,
362,35827,,,,,
356,35838,,,,,
360,35850,,,,,
353,35862,,,,,
359,35873,,,,,
356,35885,,,,,
355,35896,,,,,
358,35907,,,,,
364,35918,,,,,
413,35931,,,,,
430,35942,,,,,
412,35953,,,,,
365,35964,,,,,
364,35976,,,,,
364,35988,,,,,
357,35999,,,,,
363,36011,,,,,
358,36022,,,,,
365,36033,,,,,
363,36044,,,,,
365,36057,,,,,
371,36068,,,,,
368,36079,,,,,
377,36090,,,,,
375,36102,,,,,
385,36113,,,,,
386,36125,,,,,
390,36136,,,,,
395,36148,,,,,
388,36159,,,,,
388,36170,,,,,
368,36182,,,,,
362,36194,,,,,
351,36205,,,,,
346,36216,,,,,
347,36228,,,,,
341,36239,,,,,
347,36250,,,,,
341,36262,,,,,
347,36274,,,,,
344,36285,,,,,
345,36296,,,,,
349,36307,,,,,
345,36320,,,,,
352,36331,,,,,
345,36342,,,,,
352,36354,,,,,
349,36365,,,,,
348,36376,,,,,
351,36388,,,,,
346,36400,,,,,
352,36411,,,,,
346,36422,,,,,
351,36433,,,,,
348,36445,,,,,
348,36457,,,,,
352,36468,,,,,
347,36480,,,,,
353,36491,,,,,
347,36502,,,,,
354,36513,,,,,
350,36526,,,,,
351,36537,,,,,
354,36548,,,,,
349,36559,,,,,
356,36571,,,,,
350,36582,,,,,
357,36594,,,,,
355,36605,,,,,
358,36617,,,,,
361,36628,,,,,
353,36639,,,,,
359,36651,,,,,
351,36663,,,,,
358,36674,,,,,
354,36685,,,,,
354,36697,,,,,
359,36708,,,,,
383,36720,,,,,
427,36731,,,,,
433,36743,,,,,
382,36754,,,,,
364,36765,,,,,
363,36776,,,,,
363,36789,,,,,
356,36800,,,,,
364,36811,,,,,
357,36823,,,,,
366,36834,,,,,
364,36845,,,,,
366,36857,,,,,
372,36869,,,,,
369,36880,,,,,
380,36891,,,,,
376,36902,,,,,
387,36914,,,,,
387,36926,,,,,
391,36937,,,,,
394,36948,,,,,
385,36960,,,,,
383,36971,,,,,
362,36982,,,,,
359,36995,,,,,
349,37006,,,,,
346,37017,,,,,
348,37028,,,,,
342,37040,,,,,
349,37052,,,,,
343,37063,,,,,
350,37074,,,,,
346,37086,,,,,
348,37097,,,,,
352,37108,,,,,
346,37121,,,,,
354,37132,,,,,
347,37143,,,,,
354,37154,,,,,
350,37166,,,,,
350,37177,,,,,
353,37189,,,,,
348,37200,,,,,
355,37212,,,,,
348,37223,,,,,
354,37234,,,,,
350,37245,,,,,
351,37258,,,,,
354,37269,,,,,
349,37280,,,,,
356,37292,,,,,
349,37303,,,,,
356,37314,,,,,
353,37326,,,,,
353,37338,,,,,
357,37349,,,,,
351,37360,,,,,
358,37371,,,,,
351,37383,,,,,
358,37395,,,,,
355,37406,,,,,
356,37417,,,,,
361,37429,,,,,
357,37440,,,,,
365,37452,,,,,
356,37464,,,,,
361,37475,,,,,
357,37486,,,,,
357,37497,,,,,
361,37509,,,,,
354,37521,,,,,
363,37532,,,,,
379,37543,,,,,
426,37555,,,,,
438,37566,,,,,
392,37577,,,,,
371,37590,,,,,
364,37601,,,,,
367,37612,,,,,
358,37623,,,,,
365,37635,,,,,
362,37646,,,,,
364,37658,,,,,
369,37669,,,,,
365,37681,,,,,
375,37692,,,,,
370,37703,,,,,
380,37714,,,,,
380,37727,,,,,
384,37738,,,,,
392,37749,,,,,
389,37761,,,,,
397,37772,,,,,
388,37784,,,,,
386,37795,,,,,
370,37807,,,,,
359,37818,,,,,
355,37829,,,,,
345,37840,,,,,
351,37853,,,,,
343,37864,,,,,
350,37875,,,,,
347,37886,,,,,
347,37898,,,,,
352,37909,,,,,
346,37921,,,,,
354,37933,,,,,
348,37944,,,,,
354,37955,,,,,
351,37966,,,,,
351,37978,,,,,
355,37990,,,,,
349,38001,,,,,
356,38012,,,,,
348,38024,,,,,
355,38035,,,,,
351,38046,,,,,
351,38059,,,,,
355,38070,,,,,
349,38081,,,,,
357,38092,,,,,
350,38104,,,,,
356,38115,,,,,
353,38127,,,,,
353,38138,,,,,
357,38150,,,,,
351,38161,,,,,
360,38172,,,,,
353,38184,,,,,
362,38196,,,,,
360,38207,,,,,
359,38218,,,,,
361,38230,,,,,
353,38241,,,,,
361,38253,,,,,
353,38264,,,,,
360,38276,,,,,
356,38287,,,,,
361,38298,,,,,
403,38309,,,,,
425,38322,,,,,
428,38333,,,,,
367,38344,,,,,
369,38355,,,,,
364,38367,,,,,
361,38378,,,,,
365,38390,,,,,
359,38402,,,,,
368,38413,,,,,
361,38424,,,,,
370,38435,,,,,
368,38447,,,,,
370,38459,,,,,
378,38470,,,,,
375,38481,,,,,
387,38493,,,,,
383,38504,,,,,
394,38516,,,,,
393,38528,,,,,
393,38539,,,,,
392,38550,,,,,
374,38561,,,,,
369,38573,,,,,
351,38585,,,,,
352,38596,,,,,
345,38607,,,,,
345,38619,,,,,
348,38630,,,,,
342,38641,,,,,
350,38653,,,,,
343,38665,,,,,
351,38676,,,,,
348,38687,,,,,
348,38699,,,,,
353,38710,,,,,
347,38722,,,,,
355,38733,,,,,
347,38745,,,,,
354,38756,,,,,
350,38767,,,,,
350,38778,,,,,
354,38791,,,,,
347,38802,,,,,
355,38813,,,,,
347,38824,,,,,
353,38836,,,,,
351,38847,,,,,
350,38859,,,,,
355,38871,,,,,
348,38882,,,,,
357,38893,,,,,
348,38904,,,,,
356,38917,,,,,
353,38928,,,,,
353,38939,,,,,
360,38950,,,,,
355,38962,,,,,
362,38973,,,,,
353,38985,,,,,
358,38996,,,,,
355,39008,,,,,
354,39019,,,,,
359,39030,,,,,
351,39042,,,,,
365,39054,,,,,
393,39065,,,,,
433,39076,,,,,
427,39088,,,,,
369,39099,,,,,
369,39110,,,,,
359,39122,,,,,
364,39134,,,,,
356,39145,,,,,
364,39156,,,,,
361,39168,,,,,
362,39179,,,,,
369,39191,,,,,
364,39202,,,,,
374,39214,,,,,
369,39225,,,,,
381,39236,,,,,
381,39248,,,,,
385,39260,,,,,
393,39271,,,,,
388,39282,,,,,
397,39293,,,,,
383,39305,,,,,
379,39317,,,,,
363,39328,,,,,
353,39340,,,,,
352,39351,,,,,
343,39362,,,,,
350,39373,,,,,
341,39386,,,,,
348,39397,,,,,
345,39408,,,,,
346,39419,,,,,
351,39431,,,,,
345,39442,,,,,
354,39454,,,,,
346,39465,,,,,
353,39477,,,,,
349,39488,,,,,
349,39499,,,,,
354,39511,,,,,
347,39523,,,,,
355,39534,,,,,
346,39545,,,,,
353,39557,,,,,
349,39568,,,,,
349,39579,,,,,
353,39591,,,,,
347,39603,,,,,
356,39614,,,,,
347,39625,,,,,
355,39636,,,,,
351,39649,,,,,
351,39660,,,,,
355,39671,,,,,
349,39683,,,,,
359,39694,,,,,
351,39705,,,,,
361,39717,,,,,
359,39729,,,,,
356,39740,,,,,
360,39751,,,,,
350,39762,,,,,
360,39774,,,,,
351,39786,,,,,
357,39797,,,,,
354,39809,,,,,
370,39820,,,,,
417,39831,,,,,
435,39842,,,,,
408,39855,,,,,
361,39866,,,,,
368,39877,,,,,
360,39888,,,,,
357,39900,,,,,
363,39911,,,,,
356,39923,,,,,
366,39934,,,,,
359,39946,,,,,
368,39957,,,,,
367,39968,,,,,
369,39981,,,,,
377,39992,,,,,
373,40003,,,,,
387,40014,,,,,
382,40026,,,,,
393,40037,,,,,
391,40049,,,,,
388,40060,,,,,
386,40072,,,,,
366,40083,,,,,
364,40094,,,,,
346,40105,,,,,
350,40118,,,,,
345,40129,,,,,
343,40140,,,,,
348,40152,,,,,
341,40163,,,,,
351,40174,,,,,
342,40186,,,,,
351,40198,,,,,
348,40209,,,,,
348,40220,,,,,
353,40231,,,,,
345,40243,,,,,
355,40255,,,,,
346,40266,,,,,
353,40278,,,,,
350,40289,,,,,
348,40300,,,,,
353,40311,,,,,
346,40324,,,,,
355,40335,,,,,
346,40346,,,,,
353,40357,,,,,
350,40369,,,,,
350,40381,,,,,
355,40392,,,,,
348,40403,,,,,
357,40415,,,,,
349,40426,,,,,
359,40437,,,,,
357,40450,,,,,
355,40461,,,,,
359,40472,,,,,
350,40483,,,,,
359,40495,,,,,
350,40506,,,,,
358,40518,,,,,
354,40529,,,,,
353,40541,,,,,
387,40552,,,,,
419,40563,,,,,
437,40574,,,,,
375,40587,,,,,
366,40598,,,,,
363,40609,,,,,
359,40621,,,,,
363,40632,,,,,
356,40643,,,,,
366,40655,,,,,
358,40667,,,,,
367,40678,,,,,
366,40689,,,,,
367,40700,,,,,
376,40713,,,,,
372,40724,,,,,
385,40735,,,,,
381,40747,,,,,
392,40758,,,,,
392,40769,,,,,
392,40781,,,,,
394,40793,,,,,
376,40804,,,,,
372,40815,,,,,
351,40826,,,,,
351,40838,,,,,
345,40850,,,,,
342,40861,,,,,
348,40872,,,,,
340,40884,,,,,
350,40895,,,,,
342,40906,,,,,
349,40919,,,,,
347,40930,,,,,
346,40941,,,,,
353,40952,,,,,
345,40964,,,,,
354,40975,,,,,
346,40987,,,,,
353,40998,,,,,
350,41010,,,,,
349,41021,,,,,
354,41032,,,,,
345,41043,,,,,
355,41056,,,,,
346,41067,,,,,
353,41078,,,,,
350,41090,,,,,
349,41101,,,,,
356,41113,,,,,
350,41124,,,,,
361,41136,,,,,
352,41147,,,,,
357,41158,,,,,
353,41169,,,,,
350,41182,,,,,
357,41193,,,,,
348,41204,,,,,
357,41216,,,,,
349,41227,,,,,
374,41238,,,,,
415,41250,,,,,
432,41262,,,,,
394,41273,,,,,
358,41284,,,,,
367,41295,,,,,
355,41307,,,,,
360,41319,,,,,
358,41330,,,,,
357,41341,,,,,
365,41353,,,,,
358,41364,,,,,
370,41375,,,,,
364,41388,,,,,
373,41399,,,,,
375,41410,,,,,
376,41421,,,,,
387,41433,,,,,
383,41445,,,,,
396,41456,,,,,
389,41467,,,,,
391,41479,,,,,
379,41490,,,,,
364,41501,,,,,
359,41513,,,,,
344,41525,,,,,
349,41536,,,,,
339,41547,,,,,
345,41559,,,,,
344,41570,,,,,
343,41582,,,,,
349,41593,,,,,
341,41605,,,,,
352,41616,,,,,
344,41627,,,,,
351,41638,,,,,
350,41651,,,,,
347,41662,,,,,
354,41673,,,,,
345,41684,,,,,
355,41696,,,,,
346,41707,,,,,
352,41719,,,,,
350,41731,,,,,
348,41742,,,,,
354,41753,,,,,
346,41764,,,,,
355,41776,,,,,
347,41788,,,,,
354,41799,,,,,
352,41810,,,,,
351,41822,,,,,
358,41833,,,,,
353,41845,,,,,
363,41857,,,,,
353,41868,,,,,
358,41879,,,,,
355,41890,,,,,
353,41902,,,,,
359,41914,,,,,
350,41925,,,,,
359,41936,,,,,
356,41948,,,,,
397,41959,,,,,
430,41970,,,,,
427,41982,,,,,
374,41994,,,,,
361,42005,,,,,
368,42016,,,,,
356,42028,,,,,
362,42039,,,,,
361,42051,,,,,
359,42062,,,,,
367,42074,,,,,
361,42085,,,,,
373,42096,,,,,
367,42107,,,,,
376,42120,,,,,
378,42131,,,,,
379,42142,,,,,
389,42153,,,,,
385,42165,,,,,
397,42177,,,,,
388,42188,,,,,
388,42200,,,,,
375,42211,,,,,
360,42222,,,,,
357,42233,,,,,
344,42246,,,,,
351,42257,,,,,
342,42268,,,,,
347,42279,,,,,
347,42291,,,,,
345,42302,,,,,
352,42314,,,,,
345,42326,,,,,
355,42337,,,,,
347,42348,,,,,
352,42359,,,,,
352,42371,,,,,
349,42383,,,,,
356,42394,,,,,
347,42405,,,,,
356,42417,,,,,
348,42428,,,,,
353,42439,,,,,
352,42451,,,,,
349,42463,,,,,
356,42474,,,,,
348,42485,,,,,
357,42497,,,,,
349,42508,,,,,
354,42520,,,,,
354,42531,,,,,
351,42543,,,,,
358,42554,,,,,
350,42565,,,,,
360,42577,,,,,
355,42589,,,,,
361,42600,,,,,
359,42611,,,,,
355,42622,,,,,
360,42634,,,,,
351,42646,,,,,
361,42657,,,,,
352,42669,,,,,
357,42680,,,,,
363,42691,,,,,
396,42702,,,,,
436,42715,,,,,
423,42726,,,,,
375,42737,,,,,
363,42748,,,,,
365,42760,,,,,
361,42771,,,,,
358,42783,,,,,
365,42795,,,,,
358,42806,,,,,
369,42817,,,,,
363,42828,,,,,
371,42840,,,,,
372,42852,,,,,
372,42863,,,,,
383,42874,,,,,
378,42886,,,,,
392,42897,,,,,
388,42909,,,,,
396,42920,,,,,
395,42932,,,,,
385,42943,,,,,
380,42954,,,,,
360,42966,,,,,
360,42978,,,,,
346,42989,,,,,
349,43000,,,,,
347,43012,,,,,
344,43023,,,,,
350,43034,,,,,
343,43046,,,,,
352,43058,,,,,
345,43069,,,,,
351,43080,,,,,
351,43091,,,,,
347,43103,,,,,
355,43115,,,,,
347,43126,,,,,
356,43138,,,,,
348,43149,,,,,
353,43160,,,,,
352,43171,,,,,
348,43184,,,,,
355,43195,,,,,
347,43206,,,,,
356,43217,,,,,
349,43229,,,,,
354,43240,,,,,
354,43252,,,,,
350,43264,,,,,
358,43275,,,,,
349,43286,,,,,
361,43297,,,,,
355,43310,,,,,
361,43321,,,,,
359,43332,,,,,
353,43343,,,,,
359,43355,,,,,
351,43366,,,,,
361,43378,,,,,
351,43389,,,,,
358,43401,,,,,
383,43412,,,,,
419,43423,,,,,
441,43435,,,,,
379,43447,,,,,
369,43458,,,,,
360,43469,,,,,
363,43481,,,,,
361,43492,,,,,
357,43503,,,,,
366,43515,,,,,
358,43527,,,,,
370,43538,,,,,
364,43549,,,,,
371,43560,,,,,
375,43572,,,,,
374,43584,,,,,
385,43595,,,,,
380,43607,,,,,
394,43618,,,,,
389,43629,,,,,
395,43641,,,,,
391,43653,,,,,
376,43664,,,,,
371,43675,,,,,
351,43686,,,,,
354,43698,,,,,
343,43710,,,,,
346,43721,,,,,
347,43732,,,,,
342,43744,,,,,
351,43755,,,,,
342,43766,,,,,
352,43779,,,,,
346,43790,,,,,
350,43801,,,,,
351,43812,,,,,
347,43824,,,,,
355,43835,,,,,
346,43847,,,,,
356,43858,,,,,
348,43870,,,,,
352,43881,,,,,
352,43892,,,,,
347,43904,,,,,
355,43916,,,,,
346,43927,,,,,
355,43938,,,,,
348,43950,,,,,
352,43961,,,,,
353,43972,,,,,
349,43984,,,,,
357,43996,,,,,
349,44007,,,,,
359,44018,,,,,
354,44029,,,,,
360,44042,,,,,
359,44053,,,,,
352,44064,,,,,
359,44076,,,,,
350,44087,,,,,
360,44098,,,,,
352,44110,,,,,
355,44122,,,,,
366,44133,,,,,
401,44144,,,,,
440,44155,,,,,
413,44167,,,,,
372,44179,,,,,
363,44190,,,,,
363,44201,,,,,
361,44213,,,,,
356,44224,,,,,
365,44235,,,,,
357,44248,,,,,
368,44259,,,,,
363,44270,,,,,
368,44281,,,,,
372,44293,,,,,
370,44304,,,,,
382,44316,,,,,
377,44327,,,,,
391,44339,,,,,
387,44350,,,,,
392,44361,,,,,
393,44374,,,,,
380,44385,,,,,
376,44396,,,,,
356,44407,,,,,
357,44419,,,,,
345,44430,,,,,
347,44442,,,,,
348,44453,,,,,
342,44465,,,,,
351,44476,,,,,
343,44487,,,,,
353,44498,,,,,
346,44511,,,,,
350,44522,,,,,
352,44533,,,,,
347,44545,,,,,
355,44556,,,,,
347,44567,,,,,
357,44579,,,,,
349,44591,,,,,
352,44602,,,,,
353,44613,,,,,
348,44624,,,,,
356,44636,,,,,
347,44648,,,,,
356,44659,,,,,
350,44670,,,,,
352,44682,,,,,
354,44693,,,,,
349,44704,,,,,
358,44717,,,,,
349,44728,,,,,
358,44739,,,,,
351,44750,,,,,
355,44762,,,,,
357,44774,,,,,
352,44785,,,,,
361,44796,,,,,
354,44808,,,,,
366,44819,,,,,
359,44830,,,,,
360,44843,,,,,
360,44854,,,,,
353,44865,,,,,
362,44876,,,,,
353,44888,,,,,
361,44899,,,,,
356,44911,,,,,
383,44922,,,,,
425,44934,,,,,
437,44945,,,,,
396,44956,,,,,
362,44967,,,,,
370,44980,,,,,
360,44991,,,,,
361,45002,,,,,
363,45014,,,,,
358,45025,,,,,
368,45036,,,,,
361,45048,,,,,
372,45060,,,,,
368,45071,,,,,
373,45082,,,,,
378,45093,,,,,
376,45106,,,,,
389,45117,,,,,
383,45128,,,,,
395,45139,,,,,
391,45151,,,,,
391,45162,,,,,
384,45174,,,,,
366,45186,,,,,
364,45197,,,,,
348,45208,,,,,
353,45219,,,,,
345,45231,,,,,
346,45243,,,,,
350,45254,,,,,
344,45265,,,,,
352,45277,,,,,
344,45288,,,,,
354,45299,,,,,
348,45312,,,,,
351,45323,,,,,
354,45334,,,,,
348,45345,,,,,
357,45357,,,,,
347,45368,,,,,
356,45380,,,,,
349,45391,,,,,
351,45403,,,,,
354,45414,,,,,
348,45425,,,,,
356,45436,,,,,
347,45449,,,,,
355,45460,,,,,
350,45471,,,,,
352,45483,,,,,
355,45494,,,,,
349,45506,,,,,
358,45517,,,,,
349,45529,,,,,
359,45540,,,,,
353,45551,,,,,
355,45562,,,,,
360,45575,,,,,
356,45586,,,,,
364,45597,,,,,
353,45608,,,,,
361,45620,,,,,
354,45631,,,,,
356,45643,,,,,
359,45655,,,,,
352,45666,,,,,
366,45677,,,,,
396,45688,,,,,
436,45700,,,,,
423,45712,,,,,
369,45723,,,,,
368,45734,,,,,
359,45746,,,,,
365,45757,,,,,
356,45768,,,,,
366,45780,,,,,
361,45792,,,,,
364,45803,,,,,
369,45814,,,,,
364,45826,,,,,
376,45838,,,,,
369,45849,,,,,
382,45860,,,,,
380,45872,,,,,
385,45883,,,,,
392,45894,,,,,
387,45906,,,,,
397,45918,,,,,
382,45929,,,,,
380,45940,,,,,
361,45952,,,,,
353,45963,,,,,
351,45975,,,,,
341,45986,,,,,
350,45998,,,,,
340,46009,,,,,
350,46020,,,,,
344,46031,,,,,
346,46044,,,,,
350,46055,,,,,
344,46066,,,,,
354,46077,,,,,
344,46089,,,,,
354,46100,,,,,
348,46112,,,,,
350,46124,,,,,
353,46135,,,,,
345,46146,,,,,
355,46157,,,,,
345,46169,,,,,
354,46181,,,,,
348,46192,,,,,
349,46203,,,,,
353,46215,,,,,
345,46226,,,,,
355,46238,,,,,
345,46249,,,,,
355,46261,,,,,
350,46272,,,,,
352,46283,,,,,
359,46295,,,,,
353,46307,,,,,
360,46318,,,,,
349,46329,,,,,
357,46341,,,,,
351,46352,,,,,
353,46363,,,,,
356,46375,,,,,
349,46387,,,,,
373,46398,,,,,
406,46409,,,,,
441,46420,,,,,
403,46432,,,,,
363,46444,,,,,
367,46455,,,,,
356,46467,,,,,
364,46478,,,,,
354,46489,,,,,
364,46500,,,,,
360,46513,,,,,
362,46524,,,,,
369,46535,,,,,
364,46546,,,,,
376,46558,,,,,
369,46570,,,,,
382,46581,,,,,
381,46593,,,,,
385,46604,,,,,
394,46615,,,,,
387,46626,,,,,
395,46639,,,,,
376,46650,,,,,
373,46661,,,,,
356,46672,,,,,
349,46684,,,,,
350,46695,,,,,
341,46707,,,,,
350,46718,,,,,
340,46730,,,,,
350,46741,,,,,
345,46752,,,,,
346,46764,,,,,
351,46776,,,,,
344,46787,,,,,
354,46798,,,,,
344,46810,,,,,
353,46821,,,,,
349,46832,,,,,
349,46844,,,,,
354,46856,,,,,
345,46867,,,,,
355,46878,,,,,
344,46889,,,,,
354,46901,,,,,
349,46913,,,,,
349,46924,,,,,
354,46936,,,,,
346,46947,,,,,
356,46958,,,,,
346,46970,,,,,
356,46982,,,,,
351,46993,,,,,
351,47004,,,,,
356,47015,,,,,
349,47027,,,,,
359,47039,,,,,
350,47050,,,,,
360,47062,,,,,
357,47073,,,,,
357,47084,,,,,
361,47095,,,,,
351,47108,,,,,
361,47119,,,,,
350,47130,,,,,
359,47141,,,,,
354,47153,,,,,
355,47164,,,,,
390,47176,,,,,
421,47187,,,,,
443,47199,,,,,
375,47210,,,,,
369,47221,,,,,
363,47233,,,,,
359,47245,,,,,
363,47256,,,,,
355,47267,,,,,
366,47279,,,,,
357,47290,,,,,
367,47302,,,,,
365,47313,,,,,
366,47325,,,,,
375,47336,,,,,
370,47347,,,,,
384,47358,,,,,
378,47371,,,,,
390,47382,,,,,
388,47393,,,,,
388,47405,,,,,
390,47416,,,,,
373,47427,,,,,
371,47439,,,,,
351,47451,,,,,
353,47462,,,,,
346,47473,,,,,
343,47484,,,,,
349,47496,,,,,
340,47508,,,,,
351,47519,,,,,
341,47531,,,,,
351,47542,,,,,
348,47553,,,,,
348,47564,,,,,
354,47577,,,,,
345,47588,,,,,
356,47599,,,,,
345,47610,,,,,
354,47622,,,,,
349,47633,,,,,
348,47645,,,,,
354,47656,,,,,
345,47668,,,,,
356,47679,,,,,
345,47690,,,,,
354,47703,,,,,
350,47714,,,,,
349,47725,,,,,
356,47736,,,,,
347,47748,,,,,
358,47759,,,,,
348,47771,,,,,
357,47782,,,,,
354,47794,,,,,
355,47805,,,,,
363,47816,,,,,
353,47827,,,,,
362,47840,,,,,
350,47851,,,,,
358,47862,,,,,
355,47874,,,,,
353,47885,,,,,
358,47896,,,,,
355,47908,,,,,
402,47920,,,,,
424,47931,,,,,
426,47942,,,,,
368,47953,,,,,
362,47965,,,,,
367,47977,,,,,
355,47988,,,,,
365,48000,,,,,
356,48011,,,,,
365,48022,,,,,
364,48034,,,,,
364,48046,,,,,
372,48057,,,,,
366,48068,,,,,
379,48079,,,,,
373,48091,,,,,
384,48103,,,,,
385,48114,,,,,
387,48125,,,,,
396,48137,,,,,
388,48148,,,,,
393,48159,,,,,
371,48172,,,,,
366,48183,,,,,
354,48194,,,,,
346,48205,,,,,
350,48217,,,,,
340,48228,,,,,
350,48240,,,,,
340,48251,,,,,
348,48263,,,,,
346,48274,,,,,
345,48285,,,,,
352,48296,,,,,
343,48309,,,,,
354,48320,,,,,
345,48331,,,,,
353,48343,,,,,
350,48354,,,,,
347,48365,,,,,
354,48377,,,,,
345,48389,,,,,
354,48400,,,,,
345,48411,,,,,
352,48422,,,,,
350,48435,,,,,
347,48446,,,,,
354,48457,,,,,
346,48468,,,,,
357,48480,,,,,
349,48491,,,,,
358,48503,,,,,
356,48515,,,,,
352,48526,,,,,
356,48537,,,,,
347,48548,,,,,
358,48560,,,,,
348,48572,,,,,
355,48583,,,,,
356,48594,,,,,
386,48606,,,,,
425,48617,,,,,
419,48628,,,,,
374,48641,,,,,
357,48652,,,,,
363,48663,,,,,
358,48674,,,,,
355,48686,,,,,
363,48697,,,,,
355,48709,,,,,
367,48720,,,,,
359,48732,,,,,
369,48743,,,,,
369,48754,,,,,
368,48766,,,,,
380,48778,,,,,
374,48789,,,,,
389,48800,,,,,
384,48812,,,,,
393,48823,,,,,
391,48835,,,,,
382,48846,,,,,
378,48858,,,,,
356,48869,,,,,
358,48880,,,,,
342,48891,,,,,
347,48904,,,,,
345,48915,,,,,
341,48926,,,,,
349,48937,,,,,
339,48949,,,,,
351,48960,,,,,
342,48972,,,,,
349,48984,,,,,
349,48995,,,,,
345,49006,,,,,
354,49017,,,,,
344,49029,,,,,
355,49041,,,,,
345,49052,,,,,
352,49063,,,,,
350,49075,,,,,
347,49086,,,,,
354,49097,,,,,
344,49110,,,,,
356,49121,,,,,
345,49132,,,,,
353,49143,,,,,
352,49155,,,,,
348,49167,,,,,
357,49178,,,,,
347,49189,,,,,
361,49201,,,,,
353,49212,,,,,
360,49223,,,,,
357,49235,,,,,
351,49247,,,,,
359,49258,,,,,
349,49269,,,,,
360,49281,,,,,
350,49292,,,,,
358,49304,,,,,
383,49315,,,,,
417,49327,,,,,
442,49338,,,,,
377,49349,,,,,
371,49360,,,,,
360,49373,,,,,
362,49384,,,,,
361,49395,,,,,
357,49406,,,,,
367,49418,,,,,
358,49429,,,,,
371,49441,,,,,
363,49453,,,,,
371,49464,,,,,
373,49475,,,,,
372,49486,,,,,
385,49499,,,,,
379,49510,,,,,
393,49521,,,,,
387,49532,,,,,
393,49544,,,,,
389,49555,,,,,
375,49567,,,,,
370,49579,,,,,
351,49590,,,,,
356,49601,,,,,
343,49612,,,,,
347,49624,,,,,
348,49636,,,,,
343,49647,,,,,
352,49658,,,,,
343,49670,,,,,
354,49681,,,,,
346,49692,,,,,
351,49704,,,,,
352,49716,,,,,
347,49727,,,,,
356,49738,,,,,
345,49750,,,,,
356,49761,,,,,
348,49773,,,,,
353,49784,,,,,
352,49796,,,,,
347,49807,,,,,
356,49818,,,,,
347,49829,,,,,
357,49842,,,,,
348,49853,,,,,
353,49864,,,,,
354,49875,,,,,
349,49887,,,,,
358,49899,,,,,
348,49910,,,,,
359,49922,,,,,
351,49933,,,,,
357,49944,,,,,
360,49955,,,,,
357,49968,,,,,
364,49979,,,,,
352,49990,,,,,
361,50001,,,,,
353,50013,,,,,
358,50024,,,,,
359,50036,,,,,
353,50048,,,,,
371,50059,,,,,
399,50070,,,,,
440,50081,,,,,
414,50093,,,,,
369,50105,,,,,
368,50116,,,,,
360,50127,,,,,
367,50139,,,,,
355,50150,,,,,
368,50161,,,,,
360,50173,,,,,
366,50185,,,,,
369,50196,,,,,
366,50207,,,,,
378,50219,,,,,
370,50231,,,,,
384,50242,,,,,
380,50253,,,,,
389,50265,,,,,
393,50276,,,,,
390,50287,,,,,
399,50299,,,,,
382,50311,,,,,
381,50322,,,,,
360,50333,,,,,
356,50344,,,,,
352,50356,,,,,
344,50368,,,,,
352,50379,,,,,
342,50391,,,,,
353,50402,,,,,
345,50413,,,,,
350,50424,,,,,
352,50437,,,,,
347,50448,,,,,
356,50459,,,,,
346,50470,,,,,
357,50482,,,,,
349,50493,,,,,
353,50505,,,,,
354,50516,,,,,
348,50528,,,,,
357,50539,,,,,
347,50550,,,,,
357,50562,,,,,
349,50574,,,,,
353,50585,,,,,
355,50596,,,,,
349,50608,,,,,
358,50619,,,,,
348,50631,,,,,
360,50642,,,,,
352,50654,,,,,
359,50665,,,,,
361,50676,,,,,
353,50688,,,,,
360,50700,,,,,
349,50711,,,,,
360,50722,,,,,
352,50734,,,,,
355,50745,,,,,
358,50756,,,,,
373,50768,,,,,
425,50780,,,,,
428,50791,,,,,
392,50802,,,,,
360,50813,,,,,
365,50825,,,,,
363,50837,,,,,
355,50848,,,,,
365,50860,,,,,
355,50871,,,,,
368,50882,,,,,
361,50893,,,,,
367,50906,,,,,
371,50917,,,,,
368,50928,,,,,
381,50939,,,,,
374,50951,,,,,
389,50963,,,,,
385,50974,,,,,
391,50985,,,,,
394,50997,,,,,
383,51008,,,,,
384,51019,,,,,
360,51032,,,,,
361,51043,,,,,
346,51054,,,,,
346,51065,,,,,
347,51077,,,,,
340,51088,,,,,
350,51100,,,,,
340,51111,,,,,
351,51123,,,,,
344,51134,,,,,
348,51145,,,,,
351,51156,,,,,
344,51169,,,,,
355,51180,,,,,
344,51191,,,,,
355,51203,,,,,
347,51214,,,,,
350,51225,,,,,
353,51237,,,,,
345,51249,,,,,
356,51260,,,,,
344,51271,,,,,
355,51282,,,,,
348,51294,,,,,
351,51306,,,,,
354,51317,,,,,
347,51329,,,,,
357,51340,,,,,
347,51351,,,,,
359,51363,,,,,
351,51375,,,,,
357,51386,,,,,
361,51397,,,,,
353,51408,,,,,
362,51420,,,,,
349,51432,,,,,
359,51443,,,,,
352,51454,,,,,
354,51466,,,,,
357,51477,,,,,
352,51488,,,,,
393,51501,,,,,
418,51512,,,,,
441,51523,,,,,
375,51534,,,,,
365,51546,,,,,
367,51557,,,,,
356,51569,,,,,
366,51580,,,,,
355,51592,,,,,
367,51603,,,,,
361,51614,,,,,
365,51625,,,,,
371,51638,,,,,
365,51649,,,,,
379,51660,,,,,
371,51672,,,,,
386,51683,,,,,
383,51695,,,,,
389,51706,,,,,
395,51718,,,,,
387,51729,,,,,
394,51740,,,,,
371,51751,,,,,
370,51764,,,,,
354,51775,,,,,
350,51786,,,,,
351,51798,,,,,
342,51809,,,,,
353,51820,,,,,
342,51832,,,,,
353,51844,,,,,
347,51855,,,,,
349,51866,,,,,
354,51877,,,,,
347,51889,,,,,
357,51901,,,,,
346,51912,,,,,
358,51923,,,,,
350,51935,,,,,
352,51946,,,,,
356,51957,,,,,
348,51970,,,,,
358,51981,,,,,
347,51992,,,,,
357,52003,,,,,
351,52015,,,,,
351,52026,,,,,
356,52038,,,,,
348,52049,,,,,
359,52061,,,,,
348,52072,,,,,
359,52083,,,,,
352,52096,,,,,
354,52107,,,,,
358,52118,,,,,
350,52129,,,,,
362,52141,,,,,
352,52152,,,,,
365,52164,,,,,
359,52175,,,,,
358,52187,,,,,
361,52198,,,,,
351,52209,,,,,
363,52220,,,,,
351,52233,,,,,
361,52244,,,,,
357,52255,,,,,
381,52267,,,,,
426,52278,,,,,
434,52289,,,,,
394,52301,,,,,
361,52313,,,,,
370,52324,,,,,
361,52335,,,,,
360,52346,,,,,
366,52358,,,,,
357,52370,,,,,
370,52381,,,,,
360,52392,,,,,
372,52404,,,,,
369,52415,,,,,
372,52427,,,,,
381,52439,,,,,
375,52450,,,,,
391,52461,,,,,
383,52472,,,,,
396,52484,,,,,
392,52496,,,,,
390,52507,,,,,
385,52518,,,,,
364,52530,,,,,
365,52541,,,,,
346,52552,,,,,
353,52564,,,,,
346,52576,,,,,
346,52587,,,,,
352,52598,,,,,
342,52610,,,,,
354,52621,,,,,
343,52633,,,,,
355,52644,,,,,
350,52656,,,,,
350,52667,,,,,
356,52678,,,,,
347,52689,,,,,
358,52702,,,,,
347,52713,,,,,
357,52724,,,,,
351,52736,,,,,
351,52747,,,,,
356,52758,,,,,
347,52770,,,,,
358,52782,,,,,
347,52793,,,,,
357,52804,,,,,
353,52815,,,,,
353,52828,,,,,
359,52839,,,,,
350,52850,,,,,
362,52861,,,,,
353,52873,,,,,
365,52884,,,,,
359,52896,,,,,
356,52908,,,,,
361,52919,,,,,
351,52930,,,,,
363,52941,,,,,
352,52953,,,,,
360,52965,,,,,
359,52976,,,,,
393,52987,,,,,
432,52999,,,,,
423,53010,,,,,
378,53021,,,,,
360,53033,,,,,
368,53045,,,,,
361,53056,,,,,
359,53067,,,,,
367,53079,,,,,
357,53090,,,,,
370,53102,,,,,
360,53113,,,,,
372,53125,,,,,
371,53136,,,,,
372,53147,,,,,
382,53159,,,,,
376,53171,,,,,
392,53182,,,,,
384,53193,,,,,
396,53204,,,,,
392,53216,,,,,
384,53228,,,,,
380,53239,,,,,
358,53251,,,,,
360,53262,,,,,
344,53273,,,,,
350,53284,,,,,
346,53297,,,,,
343,53308,,,,,
351,53319,,,,,
341,53330,,,,,
354,53342,,,,,
343,53353,,,,,
353,53365,,,,,
350,53377,,,,,
348,53388,,,,,
356,53399,,,,,
346,53410,,,,,
358,53422,,,,,
346,53434,,,,,
354,53445,,,,,
351,53456,,,,,
348,53468,,,,,
356,53479,,,,,
345,53490,,,,,
358,53502,,,,,
347,53514,,,,,
355,53525,,,,,
353,53536,,,,,
350,53548,,,,,
358,53560,,,,,
348,53571,,,,,
361,53582,,,,,
351,53594,,,,,
362,53605,,,,,
360,53616,,,,,
355,53628,,,,,
363,53640,,,,,
350,53651,,,,,
363,53662,,,,,
351,53673,,,,,
359,53685,,,,,
357,53697,,,,,
367,53708,,,,,
415,53720,,,,,
432,53731,,,,,
417,53742,,,,,
362,53753,,,,,
369,53766,,,,,
364,53777,,,,,
358,53788,,,,,
366,53799,,,,,
356,53811,,,,,
370,53822,,,,,
360,53834,,,,,
370,53846,,,,,
370,53857,,,,,
369,53868,,,,,
381,53879,,,,,
374,53892,,,,,
390,53903,,,,,
383,53914,,,,,
394,53925,,,,,
393,53937,,,,,
388,53948,,,,,
389,53960,,,,,
365,53971,,,,,
367,53983,,,,,
349,53994,,,,,
352,54005,,,,,
348,54017,,,,,
344,54029,,,,,
353,54040,,,,,
342,54051,,,,,
355,54063,,,,,
345,54074,,,,,
353,54085,,,,,
352,54097,,,,,
348,54109,,,,,
358,54120,,,,,
347,54131,,,,,
359,54142,,,,,
348,54154,,,,,
355,54166,,,,,
353,54177,,,,,
349,54189,,,,,
358,54200,,,,,
347,54211,,,,,
358,54222,,,,,
348,54235,,,,,
355,54246,,,,,
354,54257,,,,,
350,54268,,,,,
359,54280,,,,,
348,54292,,,,,
360,54303,,,,,
351,54315,,,,,
359,54326,,,,,
359,54337,,,,,
357,54348,,,,,
366,54361,,,,,
353,54372,,,,,
363,54383,,,,,
352,54394,,,,,
359,54406,,,,,
358,54417,,,,,
352,54429,,,,,
363,54440,,,,,
380,54452,,,,,
429,54463,,,,,
432,54474,,,,,
382,54486,,,,,
369,54498,,,,,
362,54509,,,,,
368,54520,,,,,
355,54532,,,,,
368,54543,,,,,
359,54554,,,,,
366,54566,,,,,
368,54578,,,,,
365,54589,,,,,
377,54600,,,,,
368,54611,,,,,
384,54624,,,,,
377,54635,,,,,
388,54646,,,,,
391,54658,,,,,
389,54669,,,,,
400,54680,,,,,
384,54692,,,,,
386,54704,,,,,
363,54715,,,,,
360,54726,,,,,
353,54737,,,,,
345,54749,,,,,
353,54761,,,,,
341,54772,,,,,
354,54784,,,,,
344,54795,,,,,
351,54806,,,,,
352,54817,,,,,
347,54830,,,,,
357,54841,,,,,
347,54852,,,,,
359,54863,,,,,
349,54875,,,,,
355,54886,,,,,
355,54898,,,,,
349,54909,,,,,
358,54921,,,,,
347,54932,,,,,
359,54943,,,,,
349,54955,,,,,
354,54967,,,,,
355,54978,,,,,
349,54989,,,,,
360,55001,,,,,
347,55012,,,,,
360,55024,,,,,
351,55035,,,,,
357,55047,,,,,
360,55058,,,,,
357,55069,,,,,
365,55080,,,,,
352,55093,,,,,
363,55104,,,,,
353,55115,,,,,
358,55127,,,,,
359,55138,,,,,
353,55149,,,,,
368,55161,,,,,
393,55173,,,,,
436,55184,,,,,
421,55195,,,,,
371,55206,,,,,
368,55218,,,,,
360,55230,,,,,
368,55241,,,,,
355,55252,,,,,
368,55264,,,,,
360,55275,,,,,
367,55286,,,,,
370,55299,,,,,
365,55310,,,,,
378,55321,,,,,
369,55332,,,,,
385,55344,,,,,
380,55356,,,,,
389,55367,,,,,
394,55378,,,,,
389,55390,,,,,
400,55401,,,,,
382,55412,,,,,
383,55425,,,,,
360,55436,,,,,
355,55447,,,,,
351,55458,,,,,
342,55470,,,,,
351,55481,,,,,
339,55493,,,,,
351,55504,,,,,
343,55516,,,,,
347,55527,,,,,
351,55538,,,,,
344,55549,,,,,
355,55562,,,,,
343,55573,,,,,
357,55584,,,,,
347,55596,,,,,
351,55607,,,,,
353,55618,,,,,
346,55630,,,,,
356,55642,,,,,
344,55653,,,,,
356,55664,,,,,
347,55675,,,,,
351,55687,,,,,
354,55699,,,,,
346,55710,,,,,
358,55721,,,,,
347,55733,,,,,
361,55744,,,,,
354,55756,,,,,
357,55768,,,,,
358,55779,,,,,
348,55790,,,,,
359,55801,,,,,
347,55813,,,,,
359,55825,,,,,
350,55836,,,,,
359,55847,,,,,
399,55859,,,,,
419,55870,,,,,
426,55881,,,,,
360,55894,,,,,
369,55905,,,,,
359,55916,,,,,
360,55927,,,,,
362,55939,,,,,
354,55950,,,,,
367,55962,,,,,
356,55973,,,,,
370,55985,,,,,
364,55996,,,,,
369,56007,,,,,
376,56018,,,,,
371,56031,,,,,
387,56042,,,,,
379,56053,,,,,
395,56065,,,,,
388,56076,,,,,
391,56088,,,,,
387,56099,,,,,
366,56111,,,,,
366,56122,,,,,
345,56133,,,,,
352,56144,,,,,
341,56157,,,,,
343,56168,,,,,
348,56179,,,,,
339,56190,,,,,
351,56202,,,,,
339,56213,,,,,
352,56225,,,,,
345,56237,,,,,
349,56248,,,,,
353,56259,,,,,
345,56270,,,,,
357,56282,,,,,
343,56294,,,,,
355,56305,,,,,
347,56316,,,,,
349,56328,,,,,
353,56339,,,,,
345,56350,,,,,
357,56363,,,,,
344,56374,,,,,
356,56385,,,,,
348,56396,,,,,
351,56408,,,,,
356,56419,,,,,
347,56431,,,,,
360,56442,,,,,
347,56454,,,,,
360,56465,,,,,
352,56476,,,,,
357,56488,,,,,
363,56500,,,,,
353,56511,,,,,
364,56522,,,,,
350,56534,,,,,
362,56545,,,,,
354,56557,,,,,
355,56568,,,,,
360,56580,,,,,
355,56591,,,,,
399,56602,,,,,
418,56613,,,,,
434,56626,,,,,
371,56637,,,,,
365,56648,,,,,
368,56659,,,,,
355,56671,,,,,
367,56682,,,,,
355,56694,,,,,
367,56706,,,,,
361,56717,,,,,
365,56728,,,,,
372,56739,,,,,
365,56751,,,,,
380,56763,,,,,
371,56774,,,,,
386,56785,,,,,
383,56797,,,,,
388,56808,,,,,
396,56820,,,,,
386,56832,,,,,
394,56843,,,,,
371,56854,,,,,
370,56865,,,,,
354,56877,,,,,
350,56889,,,,,
352,56900,,,,,
341,56911,,,,,
354,56923,,,,,
341,56934,,,,,
353,56945,,,,,
347,56957,,,,,
348,56969,,,,,
355,56980,,,,,
345,56991,,,,,
358,57003,,,,,
345,57014,,,,,
357,57026,,,,,
350,57037,,,,,
350,57049,,,,,
355,57060,,,,,
344,57071,,,,,
357,57082,,,,,
344,57095,,,,,
355,57106,,,,,
349,57117,,,,,
350,57128,,,,,
356,57140,,,,,
346,57151,,,,,
359,57163,,,,,
346,57175,,,,,
358,57186,,,,,
352,57197,,,,,
352,57208,,,,,
359,57221,,,,,
349,57232,,,,,
361,57243,,,,,
349,57254,,,,,
361,57266,,,,,
355,57277,,,,,
358,57289,,,,,
367,57300,,,,,
354,57312,,,,,
366,57323,,,,,
350,57334,,,,,
363,57346,,,,,
357,57358,,,,,
356,57369,,,,,
362,57380,,,,,
364,57392,,,,,
414,57403,,,,,
429,57414,,,,,
419,57426,,,,,
367,57438,,,,,
365,57449,,,,,
369,57460,,,,,
356,57472,,,,,
368,57483,,,,,
356,57495,,,,,
368,57506,,,,,
364,57518,,,,,
365,57529,,,,,
374,57540,,,,,
366,57552,,,,,
381,57564,,,,,
372,57575,,,,,
388,57586,,,,,
386,57597,,,,,
389,57609,,,,,
398,57621,,,,,
387,57632,,,,,
393,57644,,,,,
368,57655,,,,,
365,57666,,,,,
352,57677,,,,,
346,57690,,,,,
351,57701,,,,,
339,57712,,,,,
351,57723,,,,,
339,57735,,,,,
350,57746,,,,,
347,57758,,,,,
345,57769,,,,,
354,57781,,,,,
343,57792,,,,,
356,57803,,,,,
344,57815,,,,,
355,57827,,,,,
350,57838,,,,,
348,57849,,,,,
355,57861,,,,,
344,57872,,,,,
357,57883,,,,,
344,57895,,,,,
354,57907,,,,,
350,57918,,,,,
348,57929,,,,,
355,57940,,,,,
345,57953,,,,,
358,57964,,,,,
346,57975,,,,,
356,57987,,,,,
352,57998,,,,,
350,58009,,,,,
361,58021,,,,,
352,58033,,,,,
364,58044,,,,,
350,58055,,,,,
357,58066,,,,,
354,58078,,,,,
351,58090,,,,,
359,58101,,,,,
348,58113,,,,,
367,58124,,,,,
393,58135,,,,,
430,58146,,,,,
420,58159,,,,,
364,58170,,,,,
369,58181,,,,,
356,58192,,,,,
366,58204,,,,,
353,58215,,,,,
364,58227,,,,,
361,58238,,,,,
360,58250,,,,,
371,58261,,,,,
361,58272,,,,,
377,58285,,,,,
367,58296,,,,,
381,58307,,,,,
382,58318,,,,,
382,58330,,,,,
395,58341,,,,,
386,58353,,,,,
398,58364,,,,,
379,58376,,,,,
376,58387,,,,,
361,58398,,,,,
348,58409,,,,,
352,58422,,,,,
338,58433,,,,,
350,58444,,,,,
338,58456,,,,,
347,58467,,,,,
345,58478,,,,,
342,58490,,,,,
352,58502,,,,,
340,58513,,,,,
355,58524,,,,,
343,58535,,,,,
352,58547,,,,,
350,58559,,,,,
346,58570,,,,,
355,58582,,,,,
343,58593,,,,,
356,58604,,,,,
343,58615,,,,,
352,58628,,,,,
350,58639,,,,,
346,58650,,,,,
355,58661,,,,,
344,58673,,,,,
357,58685,,,,,
345,58696,,,,,
354,58707,,,,,
353,58719,,,,,
349,58730,,,,,
358,58741,,,,,
348,58754,,,,,
363,58765,,,,,
353,58776,,,,,
359,58787,,,,,
356,58799,,,,,
350,58810,,,,,
359,58822,,,,,
348,58833,,,,,
361,58845,,,,,
349,58856,,,,,
370,58867,,,,,
407,58878,,,,,
429,58891,,,,,
415,58902,,,,,
359,58913,,,,,
372,58925,,,,,
356,58936,,,,,
362,58947,,,,,
360,58959,,,,,
356,58971,,,,,
368,58982,,,,,
357,58993,,,,,
372,59004,,,,,
363,59017,,,,,
373,59028,,,,,
375,59039,,,,,
373,59051,,,,,
388,59062,,,,,
380,59073,,,,,
397,59085,,,,,
387,59097,,,,,
393,59108,,,,,
384,59119,,,,,
366,59130,,,,,
365,59142,,,,,
345,59154,,,,,
353,59165,,,,,
341,59176,,,,,
347,59188,,,,,
346,59199,,,,,
340,59210,,,,,
352,59223,,,,,
340,59234,,,,,
354,59245,,,,,
343,59256,,,,,
351,59268,,,,,
351,59279,,,,,
346,59291,,,,,
356,59302,,,,,
344,59314,,,,,
357,59325,,,,,
345,59336,,,,,
351,59347,,,,,
351,59360,,,,,
346,59371,,,,,
356,59382,,,,,
344,59394,,,,,
357,59405,,,,,
346,59417,,,,,
353,59428,,,,,
353,59440,,,,,
348,59451,,,,,
358,59462,,,,,
346,59473,,,,,
359,59486,,,,,
349,59497,,,,,
355,59508,,,,,
356,59520,,,,,
350,59531,,,,,
361,59542,,,,,
350,59554,,,,,
365,59566,,,,,
356,59577,,,,,
360,59588,,,,,
359,59599,,,,,
351,59611,,,,,
362,59623,,,,,
350,59634,,,,,
363,59645,,,,,
352,59657,,,,,
376,59668,,,,,
417,59679,,,,,
434,59692,,,,,
408,59703,,,,,
360,59714,,,,,
373,59725,,,,,
358,59737,,,,,
362,59749,,,,,
363,59760,,,,,
357,59771,,,,,
370,59783,,,,,
359,59794,,,,,
374,59805,,,,,
365,59817,,,,,
373,59829,,,,,
378,59840,,,,,
374,59851,,,,,
389,59863,,,,,
381,59874,,,,,
397,59886,,,,,
388,59897,,,,,
392,59909,,,,,
386,59920,,,,,
367,59931,,,,,
367,59942,,,,,
346,59955,,,,,
355,59966,,,,,
343,59977,,,,,
347,59988,,,,,
349,60000,,,,,
342,60011,,,,,
