EKG,T,,,,,
320,2,102.6030781,0.033073245,2.222222222,0.020635956,0
319,3,,,,,
318,4,,,,,
316,5,,,,,
315,6,,,,,
315,7,,,,,
315,8,,,,,
314,9,,,,,
315,10,,,,,
315,11,,,,,
317,19,,,,,
310,27,,,,,
301,35,,,,,
287,45,,,,,
273,53,,,,,
301,61,,,,,
318,69,,,,,
338,77,,,,,
334,86,,,,,
322,94,,,,,
317,102,,,,,
313,112,,,,,
311,121,,,,,
308,131,,,,,
308,140,,,,,
307,149,,,,,
307,158,,,,,
312,167,,,,,
352,178,,,,,
455,187,,,,,
449,196,,,,,
381,205,,,,,
215,215,,,,,
242,224,,,,,
289,233,,,,,
314,242,,,,,
323,252,,,,,
323,262,,,,,
324,271,,,,,
333,280,,,,,
333,289,,,,,
337,299,,,,,
341,308,,,,,
343,318,,,,,
349,327,,,,,
355,336,,,,,
366,346,,,,,
374,355,,,,,
378,364,,,,,
383,373,,,,,
385,384,,,,,
385,393,,,,,
387,402,,,,,
373,411,,,,,
368,420,,,,,
358,430,,,,,
355,439,,,,,
333,449,,,,,
323,458,,,,,
319,467,,,,,
313,477,,,,,
311,486,,,,,
305,495,,,,,
299,504,,,,,
302,515,,,,,
305,524,,,,,
307,533,,,,,
311,542,,,,,
309,551,,,,,
314,561,,,,,
311,570,,,,,
313,580,,,,,
313,589,,,,,
311,599,,,,,
315,608,,,,,
310,617,,,,,
316,626,,,,,
314,635,,,,,
315,646,,,,,
309,655,,,,,
318,664,,,,,
315,673,,,,,
323,683,,,,,
325,692,,,,,
321,701,,,,,
313,711,,,,,
313,720,,,,,
311,730,,,,,
308,739,,,,,
311,748,,,,,
311,757,,,,,
311,766,,,,,
314,777,,,,,
314,786,,,,,
315,795,,,,,
316,804,,,,,
345,814,,,,,
462,823,,,,,
509,832,,,,,
462,841,,,,,
251,851,,,,,
246,861,,,,,
295,870,,,,,
321,879,,,,,
326,888,,,,,
332,898,,,,,
335,907,,,,,
338,917,,,,,
344,926,,,,,
344,935,,,,,
344,945,,,,,
351,954,,,,,
359,963,,,,,
365,972,,,,,
306,983,,,,,
329,992,,,,,
417,1001,,,,,
417,1011,,,,,
410,1021,,,,,
403,1032,,,,,
392,1043,,,,,
376,1053,,,,,
371,1063,,,,,
346,1074,,,,,
340,1084,,,,,
345,1094,,,,,
328,1104,,,,,
315,1116,,,,,
309,1126,,,,,
303,1136,,,,,
301,1146,,,,,
301,1157,,,,,
299,1167,,,,,
310,1178,,,,,
311,1188,,,,,
311,1199,,,,,
312,1209,,,,,
310,1219,,,,,
309,1229,,,,,
309,1240,,,,,
304,1251,,,,,
302,1261,,,,,
299,1271,,,,,
299,1282,,,,,
297,1292,,,,,
291,1302,,,,,
286,1313,,,,,
276,1324,,,,,
268,1334,,,,,
270,1344,,,,,
261,1354,,,,,
248,1364,,,,,
242,1376,,,,,
238,1386,,,,,
234,1396,,,,,
226,1406,,,,,
224,1417,,,,,
223,1427,,,,,
223,1437,,,,,
225,1448,,,,,
225,1459,,,,,
272,1469,,,,,
398,1479,,,,,
439,1489,,,,,
307,1500,,,,,
155,1511,,,,,
206,1521,,,,,
238,1531,,,,,
250,1542,,,,,
256,1552,,,,,
262,1562,,,,,
265,1572,,,,,
276,1584,,,,,
283,1594,,,,,
292,1604,,,,,
301,1614,,,,,
312,1625,,,,,
327,1635,,,,,
339,1646,,,,,
351,1656,,,,,
364,1667,,,,,
368,1677,,,,,
369,1687,,,,,
364,1697,,,,,
355,1709,,,,,
355,1719,,,,,
349,1729,,,,,
345,1739,,,,,
336,1750,,,,,
325,1760,,,,,
313,1770,,,,,
314,1781,,,,,
312,1792,,,,,
316,1802,,,,,
318,1812,,,,,
322,1822,,,,,
324,1832,,,,,
330,1844,,,,,
329,1854,,,,,
334,1864,,,,,
333,1874,,,,,
336,1885,,,,,
335,1895,,,,,
336,1905,,,,,
334,1916,,,,,
336,1927,,,,,
333,1937,,,,,
336,1947,,,,,
339,1957,,,,,
340,1968,,,,,
338,1979,,,,,
342,1989,,,,,
346,1999,,,,,
351,2010,,,,,
357,2020,,,,,
345,2030,,,,,
343,2041,,,,,
343,2052,,,,,
341,2062,,,,,
338,2072,,,,,
340,2082,,,,,
340,2093,,,,,
344,2103,,,,,
342,2114,,,,,
345,2124,,,,,
359,2135,,,,,
473,2145,,,,,
549,2155,,,,,
504,2165,,,,,
259,2177,,,,,
273,2187,,,,,
321,2197,,,,,
345,2207,,,,,
350,2217,,,,,
352,2228,,,,,
353,2238,,,,,
355,2249,,,,,
361,2259,,,,,
363,2270,,,,,
366,2280,,,,,
364,2290,,,,,
373,2300,,,,,
380,2312,,,,,
398,2322,,,,,
398,2332,,,,,
401,2342,,,,,
399,2353,,,,,
394,2363,,,,,
377,2374,,,,,
376,2384,,,,,
366,2395,,,,,
363,2405,,,,,
351,2415,,,,,
339,2425,,,,,
325,2436,,,,,
318,2447,,,,,
307,2457,,,,,
313,2467,,,,,
309,2478,,,,,
319,2488,,,,,
318,2498,,,,,
319,2509,,,,,
329,2520,,,,,
337,2530,,,,,
332,2540,,,,,
329,2550,,,,,
325,2561,,,,,
325,2571,,,,,
331,2582,,,,,
334,2592,,,,,
333,2603,,,,,
334,2613,,,,,
338,2623,,,,,
335,2633,,,,,
348,2644,,,,,
349,2655,,,,,
349,2665,,,,,
354,2675,,,,,
355,2685,,,,,
350,2696,,,,,
347,2707,,,,,
347,2717,,,,,
339,2727,,,,,
337,2738,,,,,
340,2748,,,,,
332,2758,,,,,
325,2768,,,,,
326,2780,,,,,
324,2790,,,,,
325,2800,,,,,
336,2810,,,,,
445,2821,,,,,
521,2831,,,,,
489,2842,,,,,
265,2852,,,,,
255,2863,,,,,
305,2873,,,,,
327,2883,,,,,
328,2893,,,,,
328,2904,,,,,
322,2915,,,,,
336,2925,,,,,
340,2935,,,,,
339,2946,,,,,
336,2956,,,,,
359,2966,,,,,
361,2977,,,,,
372,2988,,,,,
375,2998,,,,,
383,3008,,,,,
381,3018,,,,,
389,3028,,,,,
385,3040,,,,,
378,3050,,,,,
367,3060,,,,,
354,3070,,,,,
349,3081,,,,,
340,3091,,,,,
334,3101,,,,,
321,3112,,,,,
312,3123,,,,,
302,3133,,,,,
302,3143,,,,,
294,3153,,,,,
308,3164,,,,,
305,3175,,,,,
310,3185,,,,,
303,3195,,,,,
306,3206,,,,,
302,3216,,,,,
300,3226,,,,,
301,3236,,,,,
307,3248,,,,,
303,3258,,,,,
300,3268,,,,,
294,3278,,,,,
296,3289,,,,,
295,3299,,,,,
292,3310,,,,,
294,3320,,,,,
292,3331,,,,,
303,3341,,,,,
301,3351,,,,,
298,3361,,,,,
286,3373,,,,,
285,3383,,,,,
284,3393,,,,,
284,3403,,,,,
279,3414,,,,,
283,3424,,,,,
281,3434,,,,,
283,3445,,,,,
285,3456,,,,,
297,3466,,,,,
389,3476,,,,,
475,3486,,,,,
446,3496,,,,,
225,3508,,,,,
222,3518,,,,,
275,3528,,,,,
291,3538,,,,,
299,3549,,,,,
299,3559,,,,,
299,3569,,,,,
305,3580,,,,,
310,3591,,,,,
315,3601,,,,,
319,3611,,,,,
326,3621,,,,,
336,3632,,,,,
342,3643,,,,,
349,3653,,,,,
358,3663,,,,,
365,3674,,,,,
366,3684,,,,,
356,3694,,,,,
349,3705,,,,,
336,3716,,,,,
327,3726,,,,,
315,3736,,,,,
310,3746,,,,,
296,3757,,,,,
287,3767,,,,,
276,3778,,,,,
273,3788,,,,,
269,3799,,,,,
273,3809,,,,,
276,3819,,,,,
279,3829,,,,,
278,3841,,,,,
282,3851,,,,,
284,3861,,,,,
283,3871,,,,,
283,3881,,,,,
281,3892,,,,,
282,3902,,,,,
282,3913,,,,,
282,3923,,,,,
285,3934,,,,,
286,3944,,,,,
285,3954,,,,,
289,3964,,,,,
295,3976,,,,,
301,3986,,,,,
295,3996,,,,,
288,4006,,,,,
283,4017,,,,,
286,4027,,,,,
283,4038,,,,,
287,4048,,,,,
285,4059,,,,,
288,4069,,,,,
288,4079,,,,,
296,4089,,,,,
302,4100,,,,,
378,4111,,,,,
477,4121,,,,,
459,4131,,,,,
270,4142,,,,,
220,4152,,,,,
279,4162,,,,,
305,4173,,,,,
316,4184,,,,,
318,4194,,,,,
324,4204,,,,,
325,4214,,,,,
330,4225,,,,,
333,4235,,,,,
339,4246,,,,,
343,4256,,,,,
350,4267,,,,,
357,4277,,,,,
369,4287,,,,,
371,4297,,,,,
382,4308,,,,,
382,4319,,,,,
380,4329,,,,,
367,4339,,,,,
361,4349,,,,,
348,4360,,,,,
340,4371,,,,,
328,4381,,,,,
323,4391,,,,,
315,4402,,,,,
305,4412,,,,,
301,4422,,,,,
299,4432,,,,,
300,4444,,,,,
301,4454,,,,,
304,4464,,,,,
303,4474,,,,,
309,4485,,,,,
312,4495,,,,,
312,4506,,,,,
309,4516,,,,,
312,4527,,,,,
311,4537,,,,,
311,4547,,,,,
313,4557,,,,,
315,4568,,,,,
313,4579,,,,,
321,4589,,,,,
318,4599,,,,,
325,4610,,,,,
325,4620,,,,,
317,4630,,,,,
310,4641,,,,,
308,4652,,,,,
305,4662,,,,,
311,4672,,,,,
309,4682,,,,,
311,4692,,,,,
311,4704,,,,,
312,4714,,,,,
313,4724,,,,,
340,4734,,,,,
459,4745,,,,,
506,4755,,,,,
429,4765,,,,,
221,4776,,,,,
264,4787,,,,,
311,4797,,,,,
330,4807,,,,,
331,4817,,,,,
337,4828,,,,,
338,4839,,,,,
343,4849,,,,,
347,4859,,,,,
355,4870,,,,,
360,4880,,,,,
368,4890,,,,,
371,4900,,,,,
382,4912,,,,,
388,4922,,,,,
393,4932,,,,,
396,4942,,,,,
396,4953,,,,,
390,4963,,,,,
379,4974,,,,,
371,4984,,,,,
361,4995,,,,,
352,5005,,,,,
343,5015,,,,,
327,5025,,,,,
320,5037,,,,,
316,5047,,,,,
305,5057,,,,,
307,5067,,,,,
311,5078,,,,,
316,5088,,,,,
315,5098,,,,,
316,5109,,,,,
316,5120,,,,,
320,5130,,,,,
316,5140,,,,,
318,5150,,,,,
318,5160,,,,,
318,5172,,,,,
320,5182,,,,,
323,5192,,,,,
319,5202,,,,,
326,5213,,,,,
323,5223,,,,,
329,5233,,,,,
332,5244,,,,,
322,5255,,,,,
318,5265,,,,,
314,5275,,,,,
314,5285,,,,,
311,5296,,,,,
315,5307,,,,,
313,5317,,,,,
318,5327,,,,,
310,5338,,,,,
321,5348,,,,,
337,5358,,,,,
435,5369,,,,,
507,5380,,,,,
474,5390,,,,,
235,5400,,,,,
241,5410,,,,,
305,5421,,,,,
331,5431,,,,,
335,5442,,,,,
345,5452,,,,,
347,5463,,,,,
353,5473,,,,,
354,5483,,,,,
358,5493,,,,,
364,5505,,,,,
366,5515,,,,,
378,5525,,,,,
384,5535,,,,,
392,5545,,,,,
398,5556,,,,,
399,5566,,,,,
400,5577,,,,,
400,5587,,,,,
388,5598,,,,,
378,5608,,,,,
368,5618,,,,,
358,5628,,,,,
347,5640,,,,,
335,5650,,,,,
323,5660,,,,,
319,5670,,,,,
312,5681,,,,,
312,5691,,,,,
312,5702,,,,,
316,5712,,,,,
315,5723,,,,,
318,5733,,,,,
320,5743,,,,,
320,5753,,,,,
320,5764,,,,,
320,5775,,,,,
321,5785,,,,,
321,5795,,,,,
323,5806,,,,,
324,5816,,,,,
322,5826,,,,,
322,5837,,,,,
327,5848,,,,,
320,5858,,,,,
312,5868,,,,,
306,5878,,,,,
308,5889,,,,,
304,5899,,,,,
304,5910,,,,,
301,5920,,,,,
302,5931,,,,,
299,5941,,,,,
303,5951,,,,,
317,5961,,,,,
400,5972,,,,,
487,5983,,,,,
451,5993,,,,,
230,6003,,,,,
206,6013,,,,,
271,6024,,,,,
297,6035,,,,,
306,6045,,,,,
308,6055,,,,,
311,6066,,,,,
313,6076,,,,,
316,6086,,,,,
323,6096,,,,,
331,6108,,,,,
335,6118,,,,,
343,6128,,,,,
349,6138,,,,,
359,6149,,,,,
365,6159,,,,,
368,6170,,,,,
369,6180,,,,,
369,6191,,,,,
362,6201,,,,,
353,6211,,,,,
343,6221,,,,,
332,6232,,,,,
322,6243,,,,,
317,6253,,,,,
307,6263,,,,,
302,6274,,,,,
298,6284,,,,,
293,6294,,,,,
301,6305,,,,,
305,6316,,,,,
306,6326,,,,,
307,6336,,,,,
310,6346,,,,,
312,6356,,,,,
315,6368,,,,,
313,6378,,,,,
317,6388,,,,,
319,6398,,,,,
323,6409,,,,,
320,6419,,,,,
317,6429,,,,,
323,6440,,,,,
316,6451,,,,,
325,6461,,,,,
330,6471,,,,,
325,6481,,,,,
318,6492,,,,,
316,6503,,,,,
314,6513,,,,,
315,6523,,,,,
314,6534,,,,,
317,6544,,,,,
318,6554,,,,,
316,6564,,,,,
319,6576,,,,,
338,6586,,,,,
444,6596,,,,,
506,6606,,,,,
455,6617,,,,,
248,6627,,,,,
264,6638,,,,,
314,6648,,,,,
327,6659,,,,,
333,6669,,,,,
333,6679,,,,,
337,6689,,,,,
336,6701,,,,,
346,6711,,,,,
351,6721,,,,,
356,6731,,,,,
361,6742,,,,,
369,6752,,,,,
378,6762,,,,,
385,6773,,,,,
388,6784,,,,,
393,6794,,,,,
392,6804,,,,,
387,6814,,,,,
380,6824,,,,,
371,6836,,,,,
363,6846,,,,,
351,6856,,,,,
341,6866,,,,,
326,6877,,,,,
318,6887,,,,,
309,6897,,,,,
305,6908,,,,,
303,6919,,,,,
306,6929,,,,,
305,6939,,,,,
307,6949,,,,,
307,6960,,,,,
305,6971,,,,,
314,6981,,,,,
314,6991,,,,,
311,7002,,,,,
310,7012,,,,,
310,7022,,,,,
310,7033,,,,,
310,7044,,,,,
309,7054,,,,,
313,7064,,,,,
313,7074,,,,,
318,7085,,,,,
318,7095,,,,,
310,7106,,,,,
304,7116,,,,,
302,7127,,,,,
298,7137,,,,,
299,7147,,,,,
299,7157,,,,,
301,7169,,,,,
303,7179,,,,,
304,7189,,,,,
305,7199,,,,,
313,7209,,,,,
392,7220,,,,,
498,7230,,,,,
497,7241,,,,,
273,7251,,,,,
227,7262,,,,,
285,7272,,,,,
312,7282,,,,,
318,7292,,,,,
321,7304,,,,,
323,7314,,,,,
327,7324,,,,,
330,7334,,,,,
335,7345,,,,,
340,7355,,,,,
347,7366,,,,,
353,7376,,,,,
363,7387,,,,,
369,7397,,,,,
377,7407,,,,,
381,7417,,,,,
382,7428,,,,,
376,7439,,,,,
368,7449,,,,,
358,7459,,,,,
353,7470,,,,,
340,7480,,,,,
331,7490,,,,,
320,7501,,,,,
309,7512,,,,,
301,7522,,,,,
295,7532,,,,,
293,7542,,,,,
295,7553,,,,,
296,7563,,,,,
297,7574,,,,,
302,7584,,,,,
301,7595,,,,,
304,7605,,,,,
303,7615,,,,,
305,7625,,,,,
303,7636,,,,,
306,7647,,,,,
305,7657,,,,,
309,7667,,,,,
307,7677,,,,,
307,7688,,,,,
309,7699,,,,,
311,7709,,,,,
306,7719,,,,,
301,7730,,,,,
299,7740,,,,,
300,7750,,,,,
301,7760,,,,,
301,7772,,,,,
301,7782,,,,,
302,7792,,,,,
305,7802,,,,,
305,7813,,,,,
321,7823,,,,,
422,7834,,,,,
516,7844,,,,,
480,7855,,,,,
247,7865,,,,,
237,7875,,,,,
289,7885,,,,,
312,7896,,,,,
317,7907,,,,,
320,7917,,,,,
324,7927,,,,,
324,7938,,,,,
329,7948,,,,,
333,7958,,,,,
337,7969,,,,,
344,7980,,,,,
351,7990,,,,,
359,8000,,,,,
367,8010,,,,,
373,8020,,,,,
377,8032,,,,,
376,8042,,,,,
369,8052,,,,,
361,8062,,,,,
352,8073,,,,,
343,8083,,,,,
331,8093,,,,,
324,8104,,,,,
313,8115,,,,,
304,8125,,,,,
297,8135,,,,,
294,8145,,,,,
291,8156,,,,,
290,8167,,,,,
292,8177,,,,,
296,8187,,,,,
301,8198,,,,,
305,8208,,,,,
305,8218,,,,,
308,8228,,,,,
309,8240,,,,,
310,8250,,,,,
310,8260,,,,,
313,8270,,,,,
312,8281,,,,,
312,8291,,,,,
311,8302,,,,,
309,8312,,,,,
317,8323,,,,,
320,8333,,,,,
315,8343,,,,,
310,8353,,,,,
310,8365,,,,,
310,8375,,,,,
310,8385,,,,,
311,8395,,,,,
313,8406,,,,,
312,8416,,,,,
313,8426,,,,,
314,8437,,,,,
331,8448,,,,,
450,8458,,,,,
509,8468,,,,,
446,8478,,,,,
253,8488,,,,,
272,8500,,,,,
314,8510,,,,,
328,8520,,,,,
332,8530,,,,,
336,8541,,,,,
338,8551,,,,,
340,8561,,,,,
345,8572,,,,,
350,8583,,,,,
355,8593,,,,,
360,8603,,,,,
370,8613,,,,,
377,8624,,,,,
385,8635,,,,,
395,8645,,,,,
397,8655,,,,,
396,8666,,,,,
389,8676,,,,,
382,8686,,,,,
374,8697,,,,,
364,8708,,,,,
354,8718,,,,,
342,8728,,,,,
329,8738,,,,,
316,8749,,,,,
310,8759,,,,,
307,8770,,,,,
305,8780,,,,,
310,8791,,,,,
311,8801,,,,,
314,8811,,,,,
316,8821,,,,,
317,8833,,,,,
318,8843,,,,,
319,8853,,,,,
320,8863,,,,,
319,8873,,,,,
319,8884,,,,,
318,8894,,,,,
319,8905,,,,,
316,8915,,,,,
316,8926,,,,,
316,8936,,,,,
314,8946,,,,,
320,8956,,,,,
329,8968,,,,,
322,8978,,,,,
319,8988,,,,,
317,8998,,,,,
317,9009,,,,,
316,9019,,,,,
316,9030,,,,,
314,9040,,,,,
316,9051,,,,,
317,9061,,,,,
319,9071,,,,,
325,9081,,,,,
427,9092,,,,,
497,9103,,,,,
471,9113,,,,,
279,9123,,,,,
264,9134,,,,,
309,9144,,,,,
329,9154,,,,,
333,9165,,,,,
334,9176,,,,,
338,9186,,,,,
342,9196,,,,,
346,9206,,,,,
347,9217,,,,,
356,9227,,,,,
360,9238,,,,,
368,9248,,,,,
375,9259,,,,,
383,9269,,,,,
389,9279,,,,,
392,9289,,,,,
391,9300,,,,,
388,9311,,,,,
380,9321,,,,,
373,9331,,,,,
360,9341,,,,,
349,9352,,,,,
339,9363,,,,,
326,9373,,,,,
312,9383,,,,,
306,9394,,,,,
299,9404,,,,,
299,9414,,,,,
302,9424,,,,,
304,9436,,,,,
305,9446,,,,,
305,9456,,,,,
308,9466,,,,,
306,9477,,,,,
309,9487,,,,,
308,9498,,,,,
308,9508,,,,,
307,9519,,,,,
307,9529,,,,,
304,9539,,,,,
305,9549,,,,,
304,9560,,,,,
308,9571,,,,,
307,9581,,,,,
305,9591,,,,,
305,9602,,,,,
311,9612,,,,,
318,9622,,,,,
321,9633,,,,,
311,9644,,,,,
305,9654,,,,,
306,9664,,,,,
306,9674,,,,,
305,9684,,,,,
306,9696,,,,,
308,9706,,,,,
306,9716,,,,,
309,9726,,,,,
309,9737,,,,,
328,9747,,,,,
444,9757,,,,,
495,9768,,,,,
430,9779,,,,,
245,9789,,,,,
267,9799,,,,,
307,9809,,,,,
319,9820,,,,,
324,9831,,,,,
327,9841,,,,,
332,9851,,,,,
332,9862,,,,,
337,9872,,,,,
340,9882,,,,,
345,9892,,,,,
352,9904,,,,,
361,9914,,,,,
369,9924,,,,,
375,9934,,,,,
385,9945,,,,,
388,9955,,,,,
384,9966,,,,,
380,9976,,,,,
371,9987,,,,,
362,9997,,,,,
354,10007,,,,,
341,10018,,,,,
331,10031,,,,,
317,10042,,,,,
306,10053,,,,,
299,10064,,,,,
299,10076,,,,,
299,10087,,,,,
301,10099,,,,,
305,10110,,,,,
308,10122,,,,,
311,10133,,,,,
310,10144,,,,,
311,10156,,,,,
309,10168,,,,,
307,10179,,,,,
310,10190,,,,,
307,10202,,,,,
307,10213,,,,,
307,10224,,,,,
308,10236,,,,,
310,10248,,,,,
308,10259,,,,,
309,10270,,,,,
310,10281,,,,,
321,10293,,,,,
324,10305,,,,,
314,10316,,,,,
311,10328,,,,,
310,10339,,,,,
311,10350,,,,,
311,10362,,,,,
312,10374,,,,,
311,10385,,,,,
312,10396,,,,,
315,10407,,,,,
335,10419,,,,,
463,10431,,,,,
505,10442,,,,,
364,10454,,,,,
239,10465,,,,,
294,10476,,,,,
322,10487,,,,,
327,10500,,,,,
330,10511,,,,,
335,10522,,,,,
339,10533,,,,,
343,10545,,,,,
349,10556,,,,,
357,10568,,,,,
362,10579,,,,,
371,10591,,,,,
379,10602,,,,,
385,10613,,,,,
390,10625,,,,,
389,10637,,,,,
383,10648,,,,,
371,10659,,,,,
364,10671,,,,,
353,10682,,,,,
341,10694,,,,,
330,10705,,,,,
316,10717,,,,,
312,10728,,,,,
304,10739,,,,,
304,10750,,,,,
304,10763,,,,,
307,10774,,,,,
309,10785,,,,,
314,10797,,,,,
316,10808,,,,,
314,10819,,,,,
315,10831,,,,,
311,10843,,,,,
311,10854,,,,,
311,10865,,,,,
311,10876,,,,,
310,10888,,,,,
310,10900,,,,,
310,10911,,,,,
309,10923,,,,,
309,10934,,,,,
310,10945,,,,,
311,10956,,,,,
321,10969,,,,,
323,10980,,,,,
315,10991,,,,,
312,11002,,,,,
311,11014,,,,,
310,11025,,,,,
309,11037,,,,,
312,11048,,,,,
313,11060,,,,,
315,11071,,,,,
310,11082,,,,,
347,11095,,,,,
478,11106,,,,,
510,11117,,,,,
333,11128,,,,,
243,11140,,,,,
299,11151,,,,,
322,11163,,,,,
328,11174,,,,,
330,11186,,,,,
335,11197,,,,,
337,11208,,,,,
342,11219,,,,,
349,11232,,,,,
353,11243,,,,,
359,11254,,,,,
370,11266,,,,,
378,11277,,,,,
386,11288,,,,,
388,11300,,,,,
387,11312,,,,,
379,11323,,,,,
369,11334,,,,,
360,11345,,,,,
349,11357,,,,,
341,11369,,,,,
326,11380,,,,,
314,11392,,,,,
306,11403,,,,,
301,11414,,,,,
301,11426,,,,,
303,11438,,,,,
304,11449,,,,,
305,11460,,,,,
308,11471,,,,,
308,11483,,,,,
312,11495,,,,,
309,11506,,,,,
308,11517,,,,,
307,11529,,,,,
305,11540,,,,,
306,11551,,,,,
307,11564,,,,,
305,11575,,,,,
309,11586,,,,,
307,11597,,,,,
306,11609,,,,,
307,11620,,,,,
315,11632,,,,,
320,11643,,,,,
313,11655,,,,,
308,11666,,,,,
310,11677,,,,,
309,11688,,,,,
307,11701,,,,,
309,11712,,,,,
307,11723,,,,,
309,11735,,,,,
309,11746,,,,,
317,11757,,,,,
425,11769,,,,,
509,11781,,,,,
438,11792,,,,,
236,11803,,,,,
278,11814,,,,,
313,11827,,,,,
322,11838,,,,,
326,11849,,,,,
328,11860,,,,,
333,11872,,,,,
335,11883,,,,,
340,11895,,,,,
349,11907,,,,,
353,11918,,,,,
362,11929,,,,,
369,11940,,,,,
383,11952,,,,,
385,11964,,,,,
386,11975,,,,,
378,11986,,,,,
370,11998,,,,,
361,12009,,,,,
349,12020,,,,,
340,12033,,,,,
326,12044,,,,,
315,12055,,,,,
307,12066,,,,,
299,12078,,,,,
296,12089,,,,,
298,12101,,,,,
303,12112,,,,,
305,12124,,,,,
305,12135,,,,,
305,12146,,,,,
311,12158,,,,,
311,12170,,,,,
307,12181,,,,,
307,12192,,,,,
306,12204,,,,,
309,12215,,,,,
306,12227,,,,,
306,12238,,,,,
309,12250,,,,,
305,12261,,,,,
308,12272,,,,,
305,12283,,,,,
315,12296,,,,,
317,12307,,,,,
312,12318,,,,,
307,12329,,,,,
303,12341,,,,,
305,12352,,,,,
305,12364,,,,,
307,12376,,,,,
307,12387,,,,,
306,12398,,,,,
307,12409,,,,,
321,12421,,,,,
439,12433,,,,,
502,12444,,,,,
393,12455,,,,,
229,12467,,,,,
282,12478,,,,,
314,12489,,,,,
321,12502,,,,,
325,12513,,,,,
326,12524,,,,,
334,12535,,,,,
337,12547,,,,,
341,12559,,,,,
350,12570,,,,,
353,12581,,,,,
362,12593,,,,,
370,12604,,,,,
378,12615,,,,,
387,12627,,,,,
384,12639,,,,,
379,12650,,,,,
368,12661,,,,,
358,12673,,,,,
350,12684,,,,,
338,12696,,,,,
328,12707,,,,,
313,12719,,,,,
304,12730,,,,,
296,12741,,,,,
298,12752,,,,,
299,12765,,,,,
301,12776,,,,,
303,12787,,,,,
306,12798,,,,,
307,12810,,,,,
305,12821,,,,,
307,12833,,,,,
305,12845,,,,,
306,12856,,,,,
305,12867,,,,,
309,12878,,,,,
307,12891,,,,,
305,12902,,,,,
307,12913,,,,,
310,12924,,,,,
317,12936,,,,,
312,12947,,,,,
309,12959,,,,,
310,12971,,,,,
308,12982,,,,,
309,12993,,,,,
307,13004,,,,,
308,13016,,,,,
311,13028,,,,,
312,13039,,,,,
326,13050,,,,,
432,13062,,,,,
522,13073,,,,,
432,13084,,,,,
213,13096,,,,,
273,13108,,,,,
312,13119,,,,,
324,13130,,,,,
324,13142,,,,,
329,13153,,,,,
333,13165,,,,,
335,13176,,,,,
342,13188,,,,,
347,13199,,,,,
354,13210,,,,,
357,13221,,,,,
368,13234,,,,,
375,13245,,,,,
383,13256,,,,,
381,13267,,,,,
374,13279,,,,,
364,13291,,,,,
352,13302,,,,,
344,13314,,,,,
336,13325,,,,,
325,13336,,,,,
313,13347,,,,,
303,13360,,,,,
298,13371,,,,,
298,13382,,,,,
299,13393,,,,,
301,13405,,,,,
303,13416,,,,,
305,13428,,,,,
306,13440,,,,,
307,13451,,,,,
309,13462,,,,,
310,13473,,,,,
308,13485,,,,,
307,13497,,,,,
306,13508,,,,,
308,13519,,,,,
310,13531,,,,,
311,13542,,,,,
314,13553,,,,,
316,13565,,,,,
315,13577,,,,,
304,13588,,,,,
303,13599,,,,,
300,13611,,,,,
298,13623,,,,,
302,13634,,,,,
302,13645,,,,,
304,13657,,,,,
306,13668,,,,,
313,13679,,,,,
408,13691,,,,,
514,13703,,,,,
466,13714,,,,,
208,13725,,,,,
252,13736,,,,,
304,13748,,,,,
322,13760,,,,,
332,13771,,,,,
335,13783,,,,,
337,13794,,,,,
340,13805,,,,,
344,13816,,,,,
349,13829,,,,,
356,13840,,,,,
364,13851,,,,,
386,13862,,,,,
390,13874,,,,,
395,13885,,,,,
398,13897,,,,,
393,13908,,,,,
384,13920,,,,,
375,13931,,,,,
367,13942,,,,,
359,13954,,,,,
347,13966,,,,,
335,13977,,,,,
326,13988,,,,,
317,14000,,,,,
316,14011,,,,,
317,14023,,,,,
321,14034,,,,,
323,14046,,,,,
327,14057,,,,,
326,14068,,,,,
330,14080,,,,,
327,14092,,,,,
330,14103,,,,,
332,14114,,,,,
329,14126,,,,,
334,14137,,,,,
332,14148,,,,,
330,14160,,,,,
333,14172,,,,,
328,14183,,,,,
324,14194,,,,,
322,14205,,,,,
321,14217,,,,,
318,14229,,,,,
318,14240,,,,,
318,14252,,,,,
318,14263,,,,,
324,14274,,,,,
337,14285,,,,,
432,14298,,,,,
492,14309,,,,,
412,14320,,,,,
195,14331,,,,,
261,14343,,,,,
316,14355,,,,,
335,14366,,,,,
342,14377,,,,,
340,14389,,,,,
347,14400,,,,,
347,14411,,,,,
353,14424,,,,,
357,14435,,,,,
363,14446,,,,,
370,14457,,,,,
375,14469,,,,,
384,14480,,,,,
388,14492,,,,,
393,14503,,,,,
386,14515,,,,,
373,14526,,,,,
362,14537,,,,,
352,14548,,,,,
343,14561,,,,,
326,14572,,,,,
316,14583,,,,,
307,14595,,,,,
300,14606,,,,,
301,14617,,,,,
298,14629,,,,,
303,14641,,,,,
303,14652,,,,,
306,14663,,,,,
309,14674,,,,,
311,14686,,,,,
317,14698,,,,,
318,14709,,,,,
321,14721,,,,,
317,14732,,,,,
315,14743,,,,,
315,14755,,,,,
316,14767,,,,,
307,14778,,,,,
300,14789,,,,,
301,14800,,,,,
296,14812,,,,,
302,14824,,,,,
299,14835,,,,,
301,14846,,,,,
304,14858,,,,,
312,14869,,,,,
383,14880,,,,,
474,14893,,,,,
423,14904,,,,,
208,14915,,,,,
232,14926,,,,,
297,14938,,,,,
318,14949,,,,,
324,14961,,,,,
325,14972,,,,,
331,14984,,,,,
332,14995,,,,,
338,15006,,,,,
345,15017,,,,,
348,15030,,,,,
357,15041,,,,,
363,15052,,,,,
373,15064,,,,,
381,15075,,,,,
386,15087,,,,,
382,15098,,,,,
373,15110,,,,,
363,15121,,,,,
350,15132,,,,,
339,15143,,,,,
326,15156,,,,,
312,15167,,,,,
304,15178,,,,,
297,15190,,,,,
297,15201,,,,,
295,15212,,,,,
301,15224,,,,,
302,15236,,,,,
304,15247,,,,,
307,15258,,,,,
309,15269,,,,,
314,15281,,,,,
314,15293,,,,,
320,15304,,,,,
318,15315,,,,,
321,15327,,,,,
316,15338,,,,,
318,15349,,,,,
321,15362,,,,,
312,15373,,,,,
309,15384,,,,,
306,15395,,,,,
306,15407,,,,,
305,15418,,,,,
305,15430,,,,,
309,15441,,,,,
309,15453,,,,,
314,15464,,,,,
351,15475,,,,,
472,15488,,,,,
469,15499,,,,,
297,15510,,,,,
219,15521,,,,,
292,15533,,,,,
328,15544,,,,,
332,15556,,,,,
337,15567,,,,,
343,15579,,,,,
343,15590,,,,,
351,15601,,,,,
354,15612,,,,,
363,15625,,,,,
372,15636,,,,,
380,15647,,,,,
389,15659,,,,,
397,15670,,,,,
403,15681,,,,,
400,15693,,,,,
399,15705,,,,,
387,15716,,,,,
376,15727,,,,,
363,15738,,,,,
350,15750,,,,,
334,15762,,,,,
318,15773,,,,,
313,15784,,,,,
309,15796,,,,,
307,15807,,,,,
311,15819,,,,,
309,15831,,,,,
314,15842,,,,,
315,15853,,,,,
320,15864,,,,,
318,15876,,,,,
319,15888,,,,,
322,15899,,,,,
321,15910,,,,,
323,15922,,,,,
325,15933,,,,,
320,15944,,,,,
321,15956,,,,,
324,15968,,,,,
316,15979,,,,,
311,15990,,,,,
313,16002,,,,,
310,16013,,,,,
312,16025,,,,,
309,16036,,,,,
313,16048,,,,,
315,16059,,,,,
319,16070,,,,,
373,16081,,,,,
494,16094,,,,,
464,16105,,,,,
265,16116,,,,,
229,16128,,,,,
298,16139,,,,,
324,16150,,,,,
331,16162,,,,,
333,16174,,,,,
339,16185,,,,,
338,16196,,,,,
343,16207,,,,,
349,16220,,,,,
353,16231,,,,,
362,16242,,,,,
367,16253,,,,,
377,16265,,,,,
383,16276,,,,,
386,16288,,,,,
384,16300,,,,,
376,16311,,,,,
368,16322,,,,,
355,16333,,,,,
347,16345,,,,,
332,16357,,,,,
320,16368,,,,,
309,16379,,,,,
303,16391,,,,,
303,16402,,,,,
300,16413,,,,,
302,16425,,,,,
302,16437,,,,,
305,16448,,,,,
311,16459,,,,,
311,16471,,,,,
315,16482,,,,,
316,16494,,,,,
321,16505,,,,,
320,16517,,,,,
321,16528,,,,,
317,16539,,,,,
318,16551,,,,,
324,16563,,,,,
317,16574,,,,,
311,16585,,,,,
306,16596,,,,,
304,16608,,,,,
305,16620,,,,,
305,16631,,,,,
307,16643,,,,,
308,16654,,,,,
312,16665,,,,,
329,16676,,,,,
439,16689,,,,,
475,16700,,,,,
373,16711,,,,,
196,16722,,,,,
266,16734,,,,,
313,16745,,,,,
324,16757,,,,,
328,16769,,,,,
331,16780,,,,,
335,16791,,,,,
342,16802,,,,,
345,16814,,,,,
348,16826,,,,,
353,16837,,,,,
361,16848,,,,,
369,16860,,,,,
375,16871,,,,,
384,16882,,,,,
383,16894,,,,,
379,16906,,,,,
366,16917,,,,,
358,16928,,,,,
347,16940,,,,,
337,16952,,,,,
328,16963,,,,,
314,16974,,,,,
307,16986,,,,,
300,16997,,,,,
302,17008,,,,,
303,17020,,,,,
303,17032,,,,,
305,17043,,,,,
310,17054,,,,,
313,17065,,,,,
314,17077,,,,,
317,17089,,,,,
318,17100,,,,,
320,17112,,,,,
321,17123,,,,,
319,17134,,,,,
320,17145,,,,,
319,17158,,,,,
315,17169,,,,,
321,17180,,,,,
323,17191,,,,,
316,17203,,,,,
311,17214,,,,,
313,17226,,,,,
310,17238,,,,,
307,17249,,,,,
311,17260,,,,,
310,17271,,,,,
313,17284,,,,,
318,17295,,,,,
369,17306,,,,,
479,17317,,,,,
436,17329,,,,,
253,17340,,,,,
228,17352,,,,,
300,17363,,,,,
324,17375,,,,,
331,17386,,,,,
333,17397,,,,,
336,17409,,,,,
339,17421,,,,,
341,17432,,,,,
350,17443,,,,,
353,17455,,,,,
362,17466,,,,,
367,17477,,,,,
377,17489,,,,,
384,17501,,,,,
389,17512,,,,,
389,17523,,,,,
381,17534,,,,,
372,17546,,,,,
361,17558,,,,,
351,17569,,,,,
339,17581,,,,,
324,17592,,,,,
315,17603,,,,,
305,17614,,,,,
305,17627,,,,,
303,17638,,,,,
305,17649,,,,,
308,17660,,,,,
309,17672,,,,,
312,17684,,,,,
314,17695,,,,,
317,17707,,,,,
315,17718,,,,,
315,17729,,,,,
316,17740,,,,,
312,17753,,,,,
313,17764,,,,,
310,17775,,,,,
313,17786,,,,,
313,17798,,,,,
312,17809,,,,,
313,17821,,,,,
311,17832,,,,,
316,17844,,,,,
323,17855,,,,,
321,17866,,,,,
313,17878,,,,,
314,17890,,,,,
312,17901,,,,,
312,17912,,,,,
313,17924,,,,,
311,17935,,,,,
315,17946,,,,,
315,17958,,,,,
332,17970,,,,,
449,17981,,,,,
463,17992,,,,,
364,18003,,,,,
204,18016,,,,,
283,18027,,,,,
323,18038,,,,,
335,18050,,,,,
337,18061,,,,,
341,18072,,,,,
349,18084,,,,,
349,18096,,,,,
356,18107,,,,,
360,18118,,,,,
367,18129,,,,,
376,18141,,,,,
382,18153,,,,,
393,18164,,,,,
398,18176,,,,,
404,18187,,,,,
396,18198,,,,,
388,18209,,,,,
378,18222,,,,,
363,18233,,,,,
354,18244,,,,,
338,18255,,,,,
327,18267,,,,,
314,18278,,,,,
307,18290,,,,,
305,18301,,,,,
304,18313,,,,,
309,18324,,,,,
310,18335,,,,,
316,18347,,,,,
315,18359,,,,,
317,18370,,,,,
315,18381,,,,,
314,18393,,,,,
316,18404,,,,,
314,18416,,,,,
315,18427,,,,,
314,18439,,,,,
313,18450,,,,,
315,18461,,,,,
310,18472,,,,,
315,18485,,,,,
314,18496,,,,,
319,18507,,,,,
316,18519,,,,,
319,18530,,,,,
321,18541,,,,,
327,18553,,,,,
331,18565,,,,,
320,18576,,,,,
320,18587,,,,,
317,18598,,,,,
315,18610,,,,,
317,18622,,,,,
316,18633,,,,,
320,18644,,,,,
319,18656,,,,,
329,18667,,,,,
370,18678,,,,,
489,18691,,,,,
467,18702,,,,,
278,18713,,,,,
219,18724,,,,,
299,18736,,,,,
336,18748,,,,,
343,18759,,,,,
348,18770,,,,,
350,18782,,,,,
352,18793,,,,,
357,18804,,,,,
359,18817,,,,,
367,18828,,,,,
371,18839,,,,,
381,18850,,,,,
389,18862,,,,,
395,18873,,,,,
402,18885,,,,,
397,18896,,,,,
396,18908,,,,,
382,18919,,,,,
373,18930,,,,,
361,18941,,,,,
347,18954,,,,,
336,18965,,,,,
321,18976,,,,,
315,18988,,,,,
308,18999,,,,,
307,19010,,,,,
307,19022,,,,,
309,19034,,,,,
315,19045,,,,,
313,19056,,,,,
319,19067,,,,,
316,19079,,,,,
318,19091,,,,,
318,19102,,,,,
315,19113,,,,,
319,19125,,,,,
316,19136,,,,,
320,19148,,,,,
318,19160,,,,,
319,19171,,,,,
320,19182,,,,,
317,19193,,,,,
323,19205,,,,,
323,19217,,,,,
320,19228,,,,,
313,19239,,,,,
315,19251,,,,,
315,19262,,,,,
315,19273,,,,,
314,19286,,,,,
315,19297,,,,,
318,19308,,,,,
324,19319,,,,,
388,19331,,,,,
499,19342,,,,,
449,19354,,,,,
241,19365,,,,,
235,19377,,,,,
303,19388,,,,,
327,19399,,,,,
335,19410,,,,,
339,19423,,,,,
341,19434,,,,,
345,19445,,,,,
348,19457,,,,,
353,19468,,,,,
358,19480,,,,,
366,19491,,,,,
372,19503,,,,,
378,19514,,,,,
387,19525,,,,,
387,19536,,,,,
388,19549,,,,,
378,19560,,,,,
371,19571,,,,,
358,19582,,,,,
345,19594,,,,,
334,19605,,,,,
318,19617,,,,,
312,19629,,,,,
304,19640,,,,,
303,19651,,,,,
302,19662,,,,,
301,19674,,,,,
303,19686,,,,,
303,19697,,,,,
311,19708,,,,,
313,19720,,,,,
317,19731,,,,,
319,19742,,,,,
317,19755,,,,,
317,19766,,,,,
314,19777,,,,,
317,19788,,,,,
313,19800,,,,,
314,19811,,,,,
315,19823,,,,,
312,19834,,,,,
318,19846,,,,,
311,19857,,,,,
319,19868,,,,,
325,19880,,,,,
319,19892,,,,,
312,19903,,,,,
312,19914,,,,,
312,19926,,,,,
309,19937,,,,,
312,19949,,,,,
311,19960,,,,,
314,19972,,,,,
318,19983,,,,,
354,19994,,,,,
478,20005,,,,,
450,20018,,,,,
293,20029,,,,,
217,20040,,,,,
295,20051,,,,,
327,20063,,,,,
335,20074,,,,,
340,20086,,,,,
341,20098,,,,,
347,20109,,,,,
349,20120,,,,,
353,20131,,,,,
360,20143,,,,,
364,20155,,,,,
374,20166,,,,,
381,20177,,,,,
394,20189,,,,,
396,20200,,,,,
398,20212,,,,,
394,20224,,,,,
385,20235,,,,,
374,20246,,,,,
358,20257,,,,,
348,20269,,,,,
331,20281,,,,,
319,20292,,,,,
310,20303,,,,,
306,20315,,,,,
305,20326,,,,,
304,20337,,,,,
307,20349,,,,,
308,20361,,,,,
311,20372,,,,,
313,20383,,,,,
312,20395,,,,,
314,20406,,,,,
312,20418,,,,,
313,20429,,,,,
311,20441,,,,,
312,20452,,,,,
311,20463,,,,,
309,20474,,,,,
311,20487,,,,,
309,20498,,,,,
310,20509,,,,,
311,20520,,,,,
315,20532,,,,,
311,20543,,,,,
315,20555,,,,,
315,20567,,,,,
319,20578,,,,,
329,20589,,,,,
321,20600,,,,,
317,20613,,,,,
315,20624,,,,,
313,20635,,,,,
315,20646,,,,,
315,20658,,,,,
315,20669,,,,,
314,20681,,,,,
320,20692,,,,,
364,20704,,,,,
482,20715,,,,,
463,20726,,,,,
277,20738,,,,,
219,20750,,,,,
297,20761,,,,,
330,20772,,,,,
338,20784,,,,,
341,20795,,,,,
345,20806,,,,,
348,20818,,,,,
355,20830,,,,,
357,20841,,,,,
364,20852,,,,,
372,20864,,,,,
380,20875,,,,,
391,20887,,,,,
399,20898,,,,,
404,20910,,,,,
405,20921,,,,,
398,20932,,,,,
389,20944,,,,,
377,20956,,,,,
366,20967,,,,,
352,20978,,,,,
342,20989,,,,,
324,21001,,,,,
315,21013,,,,,
308,21024,,,,,
304,21036,,,,,
308,21047,,,,,
308,21058,,,,,
311,21069,,,,,
311,21082,,,,,
316,21093,,,,,
316,21104,,,,,
315,21115,,,,,
317,21127,,,,,
315,21138,,,,,
316,21150,,,,,
315,21161,,,,,
315,21173,,,,,
313,21184,,,,,
314,21195,,,,,
317,21207,,,,,
313,21219,,,,,
319,21230,,,,,
313,21241,,,,,
319,21253,,,,,
319,21264,,,,,
323,21275,,,,,
331,21287,,,,,
325,21299,,,,,
318,21310,,,,,
317,21321,,,,,
317,21332,,,,,
317,21345,,,,,
318,21356,,,,,
318,21367,,,,,
318,21379,,,,,
323,21390,,,,,
340,21401,,,,,
458,21413,,,,,
483,21425,,,,,
371,21436,,,,,
187,21447,,,,,
274,21458,,,,,
325,21470,,,,,
336,21482,,,,,
340,21493,,,,,
344,21505,,,,,
345,21516,,,,,
351,21527,,,,,
352,21538,,,,,
362,21551,,,,,
364,21562,,,,,
373,21573,,,,,
381,21584,,,,,
388,21596,,,,,
396,21607,,,,,
397,21619,,,,,
396,21630,,,,,
385,21642,,,,,
376,21653,,,,,
365,21664,,,,,
351,21677,,,,,
341,21688,,,,,
324,21699,,,,,
312,21710,,,,,
305,21722,,,,,
304,21733,,,,,
303,21745,,,,,
303,21756,,,,,
307,21768,,,,,
307,21779,,,,,
309,21790,,,,,
310,21801,,,,,
310,21814,,,,,
311,21825,,,,,
309,21836,,,,,
310,21848,,,,,
308,21859,,,,,
310,21870,,,,,
307,21882,,,,,
307,21894,,,,,
310,21905,,,,,
312,21916,,,,,
313,21927,,,,,
315,21939,,,,,
315,21951,,,,,
319,21962,,,,,
328,21974,,,,,
323,21985,,,,,
315,21996,,,,,
314,22007,,,,,
311,22020,,,,,
311,22031,,,,,
310,22042,,,,,
312,22053,,,,,
312,22065,,,,,
317,22077,,,,,
348,22088,,,,,
469,22099,,,,,
482,22111,,,,,
314,22122,,,,,
191,22133,,,,,
285,22146,,,,,
326,22157,,,,,
334,22168,,,,,
339,22179,,,,,
341,22191,,,,,
347,22202,,,,,
351,22214,,,,,
357,22225,,,,,
360,22237,,,,,
369,22248,,,,,
375,22259,,,,,
383,22270,,,,,
390,22283,,,,,
397,22294,,,,,
398,22305,,,,,
394,22317,,,,,
385,22328,,,,,
373,22339,,,,,
365,22351,,,,,
351,22363,,,,,
340,22374,,,,,
327,22385,,,,,
317,22396,,,,,
308,22409,,,,,
306,22420,,,,,
308,22431,,,,,
309,22443,,,,,
313,22454,,,,,
315,22465,,,,,
316,22477,,,,,
317,22489,,,,,
317,22500,,,,,
320,22511,,,,,
316,22522,,,,,
317,22534,,,,,
315,22546,,,,,
316,22557,,,,,
316,22568,,,,,
315,22580,,,,,
318,22591,,,,,
319,22602,,,,,
326,22615,,,,,
325,22626,,,,,
329,22637,,,,,
331,22648,,,,,
319,22660,,,,,
316,22671,,,,,
313,22683,,,,,
312,22694,,,,,
312,22706,,,,,
315,22717,,,,,
316,22728,,,,,
316,22739,,,,,
323,22752,,,,,
369,22763,,,,,
490,22774,,,,,
473,22786,,,,,
245,22797,,,,,
203,22809,,,,,
295,22820,,,,,
331,22832,,,,,
338,22843,,,,,
344,22854,,,,,
345,22865,,,,,
349,22878,,,,,
354,22889,,,,,
357,22900,,,,,
365,22912,,,,,
366,22923,,,,,
381,22934,,,,,
386,22946,,,,,
393,22958,,,,,
395,22969,,,,,
394,22980,,,,,
390,22991,,,,,
379,23003,,,,,
371,23015,,,,,
358,23026,,,,,
347,23037,,,,,
334,23049,,,,,
320,23060,,,,,
312,23071,,,,,
306,23084,,,,,
307,23095,,,,,
309,23106,,,,,
311,23117,,,,,
313,23129,,,,,
313,23141,,,,,
317,23152,,,,,
318,23163,,,,,
318,23175,,,,,
319,23186,,,,,
317,23197,,,,,
318,23209,,,,,
318,23221,,,,,
319,23232,,,,,
319,23243,,,,,
325,23255,,,,,
320,23266,,,,,
324,23278,,,,,
327,23289,,,,,
317,23301,,,,,
314,23312,,,,,
310,23323,,,,,
313,23334,,,,,
314,23347,,,,,
312,23358,,,,,
311,23369,,,,,
310,23380,,,,,
318,23392,,,,,
367,23403,,,,,
489,23415,,,,,
449,23427,,,,,
254,23438,,,,,
207,23449,,,,,
289,23460,,,,,
323,23472,,,,,
330,23484,,,,,
333,23495,,,,,
336,23506,,,,,
339,23518,,,,,
344,23529,,,,,
347,23541,,,,,
354,23553,,,,,
356,23564,,,,,
367,23575,,,,,
374,23586,,,,,
381,23598,,,,,
388,23610,,,,,
385,23621,,,,,
379,23632,,,,,
365,23644,,,,,
357,23655,,,,,
345,23666,,,,,
334,23678,,,,,
323,23690,,,,,
310,23701,,,,,
303,23712,,,,,
299,23724,,,,,
299,23735,,,,,
299,23747,,,,,
302,23758,,,,,
306,23770,,,,,
307,23781,,,,,
310,23792,,,,,
311,23803,,,,,
315,23816,,,,,
312,23827,,,,,
313,23838,,,,,
316,23849,,,,,
314,23861,,,,,
319,23873,,,,,
311,23884,,,,,
317,23896,,,,,
320,23907,,,,,
319,23918,,,,,
310,23929,,,,,
307,23942,,,,,
307,23953,,,,,
306,23964,,,,,
309,23975,,,,,
308,23987,,,,,
311,23998,,,,,
314,24010,,,,,
330,24022,,,,,
438,24033,,,,,
471,24044,,,,,
375,24055,,,,,
184,24067,,,,,
266,24079,,,,,
318,24090,,,,,
331,24101,,,,,
338,24113,,,,,
337,24124,,,,,
345,24135,,,,,
347,24147,,,,,
353,24159,,,,,
357,24170,,,,,
362,24181,,,,,
371,24193,,,,,
377,24204,,,,,
388,24216,,,,,
394,24227,,,,,
395,24239,,,,,
392,24250,,,,,
380,24261,,,,,
373,24273,,,,,
359,24285,,,,,
349,24296,,,,,
334,24307,,,,,
323,24318,,,,,
311,24330,,,,,
305,24342,,,,,
304,24353,,,,,
302,24365,,,,,
306,24376,,,,,
308,24387,,,,,
311,24398,,,,,
313,24411,,,,,
315,24422,,,,,
318,24433,,,,,
316,24444,,,,,
319,24456,,,,,
316,24467,,,,,
315,24479,,,,,
316,24491,,,,,
315,24502,,,,,
319,24513,,,,,
315,24524,,,,,
318,24536,,,,,
323,24548,,,,,
321,24559,,,,,
313,24570,,,,,
310,24582,,,,,
311,24593,,,,,
307,24605,,,,,
311,24616,,,,,
312,24628,,,,,
313,24639,,,,,
313,24650,,,,,
330,24662,,,,,
438,24674,,,,,
456,24685,,,,,
361,24696,,,,,
184,24708,,,,,
270,24719,,,,,
322,24730,,,,,
335,24742,,,,,
341,24754,,,,,
342,24765,,,,,
345,24776,,,,,
349,24787,,,,,
355,24799,,,,,
360,24811,,,,,
366,24822,,,,,
375,24834,,,,,
381,24845,,,,,
392,24856,,,,,
397,24867,,,,,
401,24880,,,,,
398,24891,,,,,
389,24902,,,,,
380,24913,,,,,
366,24925,,,,,
355,24936,,,,,
339,24948,,,,,
326,24960,,,,,
314,24971,,,,,
307,24982,,,,,
305,24993,,,,,
303,25006,,,,,
306,25017,,,,,
309,25028,,,,,
309,25039,,,,,
312,25051,,,,,
312,25062,,,,,
315,25074,,,,,
311,25085,,,,,
313,25097,,,,,
312,25108,,,,,
312,25119,,,,,
312,25131,,,,,
312,25143,,,,,
316,25154,,,,,
311,25165,,,,,
317,25177,,,,,
313,25188,,,,,
321,25199,,,,,
325,25211,,,,,
317,25223,,,,,
314,25234,,,,,
310,25245,,,,,
313,25256,,,,,
311,25268,,,,,
313,25280,,,,,
315,25291,,,,,
314,25303,,,,,
318,25314,,,,,
341,25325,,,,,
463,25337,,,,,
458,25349,,,,,
333,25360,,,,,
189,25371,,,,,
283,25382,,,,,
327,25394,,,,,
338,25406,,,,,
343,25417,,,,,
346,25428,,,,,
349,25440,,,,,
354,25451,,,,,
356,25462,,,,,
365,25475,,,,,
370,25486,,,,,
380,25497,,,,,
385,25508,,,,,
393,25520,,,,,
401,25531,,,,,
402,25543,,,,,
398,25554,,,,,
387,25566,,,,,
379,25577,,,,,
365,25588,,,,,
354,25600,,,,,
341,25612,,,,,
327,25623,,,,,
316,25634,,,,,
309,25646,,,,,
309,25657,,,,,
305,25668,,,,,
310,25680,,,,,
313,25692,,,,,
315,25703,,,,,
318,25714,,,,,
315,25725,,,,,
318,25738,,,,,
317,25749,,,,,
317,25760,,,,,
319,25772,,,,,
317,25783,,,,,
317,25794,,,,,
317,25806,,,,,
315,25818,,,,,
315,25829,,,,,
318,25840,,,,,
320,25851,,,,,
321,25863,,,,,
327,25875,,,,,
322,25886,,,,,
333,25897,,,,,
333,25909,,,,,
326,25920,,,,,
320,25931,,,,,
319,25944,,,,,
317,25955,,,,,
319,25966,,,,,
319,25977,,,,,
318,25989,,,,,
322,26000,,,,,
322,26012,,,,,
336,26023,,,,,
434,26035,,,,,
487,26046,,,,,
409,26057,,,,,
182,26070,,,,,
259,26081,,,,,
324,26092,,,,,
342,26103,,,,,
347,26115,,,,,
348,26126,,,,,
353,26138,,,,,
354,26149,,,,,
360,26161,,,,,
365,26172,,,,,
371,26183,,,,,
378,26194,,,,,
384,26207,,,,,
392,26218,,,,,
397,26229,,,,,
401,26241,,,,,
397,26252,,,,,
390,26263,,,,,
379,26275,,,,,
365,26287,,,,,
357,26298,,,,,
343,26309,,,,,
334,26320,,,,,
319,26332,,,,,
313,26344,,,,,
311,26355,,,,,
308,26366,,,,,
311,26378,,,,,
311,26389,,,,,
317,26400,,,,,
317,26413,,,,,
318,26424,,,,,
321,26435,,,,,
318,26446,,,,,
319,26458,,,,,
318,26470,,,,,
317,26481,,,,,
316,26492,,,,,
316,26504,,,,,
316,26515,,,,,
319,26526,,,,,
317,26539,,,,,
318,26550,,,,,
325,26561,,,,,
322,26572,,,,,
313,26584,,,,,
314,26595,,,,,
312,26607,,,,,
315,26618,,,,,
313,26630,,,,,
315,26641,,,,,
315,26652,,,,,
317,26663,,,,,
326,26676,,,,,
388,26687,,,,,
499,26698,,,,,
440,26710,,,,,
227,26721,,,,,
230,26732,,,,,
303,26744,,,,,
331,26756,,,,,
337,26767,,,,,
342,26778,,,,,
341,26789,,,,,
349,26802,,,,,
349,26813,,,,,
355,26824,,,,,
361,26835,,,,,
366,26847,,,,,
373,26858,,,,,
380,26870,,,,,
390,26882,,,,,
391,26893,,,,,
388,26904,,,,,
381,26915,,,,,
369,26927,,,,,
359,26939,,,,,
349,26950,,,,,
339,26961,,,,,
326,26973,,,,,
316,26984,,,,,
308,26995,,,,,
306,27008,,,,,
306,27019,,,,,
304,27030,,,,,
308,27041,,,,,
309,27053,,,,,
313,27064,,,,,
317,27076,,,,,
318,27087,,,,,
321,27099,,,,,
318,27110,,,,,
320,27121,,,,,
319,27132,,,,,
318,27145,,,,,
322,27156,,,,,
318,27167,,,,,
319,27179,,,,,
318,27190,,,,,
320,27202,,,,,
327,27213,,,,,
324,27225,,,,,
319,27236,,,,,
316,27247,,,,,
317,27258,,,,,
314,27271,,,,,
316,27282,,,,,
316,27293,,,,,
317,27304,,,,,
320,27316,,,,,
331,27327,,,,,
401,27339,,,,,
490,27351,,,,,
431,27362,,,,,
214,27373,,,,,
240,27384,,,,,
313,27396,,,,,
337,27408,,,,,
344,27419,,,,,
345,27430,,,,,
351,27442,,,,,
352,27453,,,,,
357,27464,,,,,
362,27476,,,,,
366,27488,,,,,
375,27499,,,,,
381,27510,,,,,
390,27522,,,,,
396,27534,,,,,
398,27545,,,,,
396,27556,,,,,
388,27568,,,,,
379,27579,,,,,
365,27590,,,,,
356,27602,,,,,
343,27614,,,,,
331,27625,,,,,
321,27636,,,,,
310,27648,,,,,
308,27659,,,,,
306,27671,,,,,
311,27682,,,,,
312,27694,,,,,
315,27705,,,,,
318,27716,,,,,
319,27727,,,,,
322,27740,,,,,
320,27751,,,,,
321,27762,,,,,
321,27773,,,,,
320,27785,,,,,
319,27796,,,,,
317,27808,,,,,
317,27820,,,,,
316,27831,,,,,
316,27842,,,,,
317,27853,,,,,
319,27865,,,,,
321,27877,,,,,
329,27888,,,,,
328,27899,,,,,
317,27911,,,,,
319,27922,,,,,
316,27934,,,,,
317,27945,,,,,
319,27957,,,,,
317,27968,,,,,
318,27979,,,,,
318,27991,,,,,
329,28003,,,,,
390,28014,,,,,
481,28025,,,,,
425,28037,,,,,
227,28048,,,,,
239,28059,,,,,
314,28071,,,,,
341,28083,,,,,
347,28094,,,,,
349,28105,,,,,
355,28116,,,,,
355,28128,,,,,
361,28140,,,,,
364,28151,,,,,
372,28163,,,,,
377,28174,,,,,
384,28185,,,,,
395,28196,,,,,
401,28209,,,,,
406,28220,,,,,
401,28231,,,,,
398,28242,,,,,
388,28254,,,,,
377,28266,,,,,
365,28277,,,,,
352,28289,,,,,
340,28300,,,,,
325,28311,,,,,
318,28322,,,,,
311,28335,,,,,
310,28346,,,,,
311,28357,,,,,
313,28368,,,,,
316,28380,,,,,
317,28391,,,,,
321,28403,,,,,
320,28414,,,,,
323,28426,,,,,
322,28437,,,,,
318,28448,,,,,
321,28460,,,,,
317,28472,,,,,
320,28483,,,,,
317,28494,,,,,
318,28506,,,,,
319,28517,,,,,
321,28528,,,,,
323,28540,,,,,
320,28552,,,,,
326,28563,,,,,
327,28574,,,,,
337,28585,,,,,
333,28597,,,,,
324,28609,,,,,
324,28620,,,,,
320,28632,,,,,
321,28643,,,,,
323,28654,,,,,
321,28666,,,,,
323,28678,,,,,
323,28689,,,,,
328,28700,,,,,
360,28711,,,,,
485,28723,,,,,
463,28735,,,,,
305,28746,,,,,
207,28758,,,,,
301,28769,,,,,
342,28780,,,,,
349,28791,,,,,
355,28804,,,,,
357,28815,,,,,
362,28826,,,,,
367,28837,,,,,
370,28849,,,,,
377,28860,,,,,
380,28872,,,,,
391,28883,,,,,
397,28895,,,,,
405,28906,,,,,
410,28917,,,,,
412,28929,,,,,
409,28941,,,,,
396,28952,,,,,
388,28963,,,,,
376,28975,,,,,
364,28986,,,,,
352,28998,,,,,
340,29009,,,,,
330,29021,,,,,
322,29032,,,,,
321,29043,,,,,
320,29054,,,,,
324,29067,,,,,
326,29078,,,,,
326,29089,,,,,
328,29101,,,,,
328,29112,,,,,
329,29123,,,,,
328,29135,,,,,
326,29147,,,,,
329,29158,,,,,
325,29169,,,,,
326,29180,,,,,
324,29192,,,,,
326,29204,,,,,
327,29215,,,,,
329,29227,,,,,
329,29238,,,,,
328,29249,,,,,
333,29260,,,,,
338,29273,,,,,
337,29284,,,,,
327,29295,,,,,
324,29306,,,,,
325,29318,,,,,
322,29329,,,,,
325,29341,,,,,
324,29352,,,,,
327,29364,,,,,
326,29375,,,,,
329,29386,,,,,
369,29399,,,,,
491,29410,,,,,
461,29421,,,,,
293,29432,,,,,
205,29444,,,,,
300,29455,,,,,
338,29467,,,,,
349,29478,,,,,
351,29490,,,,,
355,29501,,,,,
357,29512,,,,,
363,29523,,,,,
366,29536,,,,,
371,29547,,,,,
379,29558,,,,,
382,29570,,,,,
393,29581,,,,,
396,29592,,,,,
403,29604,,,,,
401,29616,,,,,
398,29627,,,,,
386,29638,,,,,
373,29649,,,,,
366,29661,,,,,
352,29673,,,,,
340,29684,,,,,
328,29696,,,,,
319,29707,,,,,
315,29718,,,,,
312,29730,,,,,
313,29742,,,,,
314,29753,,,,,
319,29764,,,,,
321,29775,,,,,
325,29787,,,,,
326,29799,,,,,
326,29810,,,,,
327,29821,,,,,
324,29833,,,,,
326,29844,,,,,
324,29855,,,,,
327,29868,,,,,
327,29879,,,,,
327,29890,,,,,
326,29901,,,,,
326,29913,,,,,
335,29924,,,,,
330,29936,,,,,
323,29947,,,,,
322,29959,,,,,
321,29970,,,,,
321,29981,,,,,
322,29992,,,,,
324,30005,,,,,
323,30016,,,,,
327,30027,,,,,
337,30039,,,,,
417,30050,,,,,
502,30061,,,,,
427,30073,,,,,
210,30085,,,,,
254,30096,,,,,
319,30107,,,,,
341,30118,,,,,
347,30131,,,,,
352,30142,,,,,
354,30153,,,,,
361,30164,,,,,
363,30176,,,,,
369,30187,,,,,
372,30199,,,,,
377,30211,,,,,
388,30222,,,,,
393,30233,,,,,
401,30244,,,,,
404,30256,,,,,
402,30268,,,,,
393,30279,,,,,
382,30290,,,,,
373,30302,,,,,
361,30313,,,,,
350,30324,,,,,
339,30337,,,,,
329,30348,,,,,
322,30359,,,,,
319,30370,,,,,
321,30382,,,,,
321,30393,,,,,
327,30405,,,,,
327,30416,,,,,
331,30428,,,,,
335,30439,,,,,
335,30450,,,,,
335,30462,,,,,
335,30474,,,,,
338,30485,,,,,
337,30496,,,,,
337,30508,,,,,
338,30519,,,,,
338,30531,,,,,
338,30542,,,,,
335,30554,,,,,
340,30565,,,,,
347,30576,,,,,
346,30587,,,,,
339,30600,,,,,
336,30611,,,,,
338,30622,,,,,
338,30633,,,,,
339,30645,,,,,
339,30656,,,,,
341,30668,,,,,
343,30680,,,,,
356,30691,,,,,
446,30702,,,,,
502,30713,,,,,
430,30725,,,,,
221,30737,,,,,
285,30748,,,,,
345,30759,,,,,
364,30771,,,,,
370,30782,,,,,
371,30793,,,,,
376,30806,,,,,
379,30817,,,,,
384,30828,,,,,
388,30839,,,,,
394,30851,,,,,
403,30863,,,,,
408,30874,,,,,
418,30885,,,,,
424,30897,,,,,
430,30908,,,,,
426,30919,,,,,
416,30931,,,,,
407,30943,,,,,
397,30954,,,,,
387,30965,,,,,
372,30977,,,,,
360,30988,,,,,
349,31000,,,,,
341,31011,,,,,
340,31023,,,,,
337,31034,,,,,
340,31045,,,,,
342,31056,,,,,
344,31069,,,,,
347,31080,,,,,
348,31091,,,,,
350,31102,,,,,
349,31114,,,,,
351,31125,,,,,
350,31137,,,,,
351,31149,,,,,
348,31160,,,,,
348,31171,,,,,
347,31182,,,,,
348,31195,,,,,
350,31206,,,,,
351,31217,,,,,
352,31228,,,,,
357,31240,,,,,
363,31251,,,,,
354,31263,,,,,
349,31275,,,,,
350,31286,,,,,
348,31297,,,,,
349,31308,,,,,
350,31320,,,,,
349,31332,,,,,
353,31343,,,,,
355,31354,,,,,
386,31366,,,,,
507,31377,,,,,
491,31388,,,,,
346,31400,,,,,
238,31412,,,,,
330,31423,,,,,
367,31434,,,,,
378,31446,,,,,
380,31457,,,,,
384,31469,,,,,
387,31480,,,,,
389,31492,,,,,
395,31503,,,,,
397,31514,,,,,
403,31525,,,,,
409,31538,,,,,
418,31549,,,,,
427,31560,,,,,
433,31571,,,,,
434,31583,,,,,
424,31595,,,,,
418,31606,,,,,
405,31618,,,,,
396,31629,,,,,
383,31640,,,,,
369,31651,,,,,
356,31664,,,,,
342,31675,,,,,
339,31686,,,,,
335,31697,,,,,
336,31709,,,,,
339,31720,,,,,
340,31732,,,,,
344,31744,,,,,
344,31755,,,,,
347,31766,,,,,
345,31777,,,,,
345,31789,,,,,
345,31801,,,,,
345,31812,,,,,
344,31823,,,,,
343,31835,,,,,
345,31846,,,,,
343,31857,,,,,
348,31869,,,,,
348,31881,,,,,
347,31892,,,,,
351,31903,,,,,
353,31915,,,,,
362,31927,,,,,
355,31938,,,,,
347,31949,,,,,
344,31961,,,,,
342,31972,,,,,
341,31983,,,,,
339,31995,,,,,
341,32007,,,,,
338,32018,,,,,
341,32029,,,,,
344,32040,,,,,
381,32052,,,,,
501,32064,,,,,
481,32075,,,,,
311,32087,,,,,
225,32098,,,,,
322,32109,,,,,
357,32120,,,,,
366,32133,,,,,
369,32144,,,,,
371,32155,,,,,
377,32166,,,,,
379,32178,,,,,
385,32189,,,,,
390,32201,,,,,
398,32212,,,,,
408,32224,,,,,
413,32235,,,,,
424,32246,,,,,
426,32258,,,,,
427,32270,,,,,
420,32281,,,,,
411,32292,,,,,
399,32304,,,,,
387,32315,,,,,
378,32327,,,,,
363,32338,,,,,
348,32350,,,,,
336,32361,,,,,
331,32372,,,,,
329,32384,,,,,
328,32396,,,,,
333,32407,,,,,
333,32418,,,,,
336,32430,,,,,
334,32441,,,,,
336,32452,,,,,
336,32464,,,,,
336,32476,,,,,
338,32487,,,,,
335,32498,,,,,
335,32509,,,,,
333,32521,,,,,
335,32533,,,,,
335,32544,,,,,
336,32556,,,,,
340,32567,,,,,
342,32578,,,,,
346,32589,,,,,
337,32602,,,,,
333,32613,,,,,
332,32624,,,,,
330,32635,,,,,
332,32647,,,,,
330,32659,,,,,
334,32670,,,,,
332,32681,,,,,
333,32693,,,,,
340,32704,,,,,
385,32715,,,,,
513,32728,,,,,
469,32739,,,,,
284,32750,,,,,
223,32761,,,,,
310,32773,,,,,
346,32784,,,,,
353,32796,,,,,
359,32807,,,,,
360,32819,,,,,
366,32830,,,,,
367,32841,,,,,
370,32852,,,,,
376,32865,,,,,
381,32876,,,,,
389,32887,,,,,
394,32899,,,,,
402,32910,,,,,
407,32921,,,,,
404,32933,,,,,
396,32945,,,,,
384,32956,,,,,
377,32967,,,,,
362,32978,,,,,
354,32990,,,,,
343,33002,,,,,
331,33013,,,,,
324,33025,,,,,
318,33036,,,,,
319,33047,,,,,
318,33059,,,,,
319,33071,,,,,
321,33082,,,,,
325,33093,,,,,
328,33104,,,,,
328,33116,,,,,
333,33128,,,,,
331,33139,,,,,
332,33150,,,,,
328,33162,,,,,
327,33173,,,,,
331,33184,,,,,
328,33197,,,,,
329,33208,,,,,
328,33219,,,,,
331,33230,,,,,
337,33242,,,,,
333,33253,,,,,
326,33265,,,,,
323,33276,,,,,
325,33288,,,,,
322,33299,,,,,
325,33310,,,,,
324,33321,,,,,
325,33334,,,,,
328,33345,,,,,
334,33356,,,,,
401,33368,,,,,
488,33379,,,,,
426,33391,,,,,
229,33402,,,,,
253,33414,,,,,
325,33425,,,,,
347,33436,,,,,
354,33447,,,,,
357,33460,,,,,
362,33471,,,,,
365,33482,,,,,
370,33494,,,,,
374,33505,,,,,
379,33516,,,,,
387,33528,,,,,
393,33540,,,,,
404,33551,,,,,
410,33562,,,,,
414,33573,,,,,
413,33585,,,,,
403,33597,,,,,
394,33608,,,,,
383,33619,,,,,
373,33631,,,,,
357,33642,,,,,
346,33653,,,,,
334,33666,,,,,
324,33677,,,,,
324,33688,,,,,
320,33699,,,,,
323,33711,,,,,
324,33722,,,,,
327,33734,,,,,
330,33745,,,,,
328,33757,,,,,
331,33768,,,,,
328,33779,,,,,
331,33792,,,,,
329,33803,,,,,
330,33814,,,,,
330,33825,,,,,
329,33837,,,,,
334,33848,,,,,
330,33860,,,,,
336,33871,,,,,
333,33883,,,,,
341,33894,,,,,
344,33905,,,,,
334,33916,,,,,
331,33929,,,,,
327,33940,,,,,
330,33951,,,,,
329,33963,,,,,
330,33974,,,,,
332,33985,,,,,
330,33997,,,,,
335,34009,,,,,
353,34020,,,,,
472,34031,,,,,
483,34042,,,,,
369,34054,,,,,
207,34066,,,,,
294,34077,,,,,
345,34088,,,,,
355,34100,,,,,
360,34111,,,,,
362,34123,,,,,
367,34135,,,,,
372,34146,,,,,
376,34157,,,,,
384,34168,,,,,
389,34180,,,,,
398,34192,,,,,
405,34203,,,,,
413,34214,,,,,
420,34226,,,,,
420,34237,,,,,
417,34248,,,,,
405,34260,,,,,
396,34272,,,,,
385,34283,,,,,
375,34294,,,,,
365,34306,,,,,
351,34317,,,,,
341,34329,,,,,
334,34340,,,,,
333,34352,,,,,
329,34363,,,,,
331,34374,,,,,
335,34385,,,,,
336,34398,,,,,
338,34409,,,,,
338,34420,,,,,
341,34432,,,,,
339,34443,,,,,
342,34454,,,,,
339,34466,,,,,
338,34478,,,,,
338,34489,,,,,
337,34500,,,,,
341,34511,,,,,
338,34524,,,,,
347,34535,,,,,
343,34546,,,,,
350,34557,,,,,
351,34569,,,,,
339,34580,,,,,
335,34592,,,,,
333,34604,,,,,
332,34615,,,,,
333,34626,,,,,
332,34637,,,,,
333,34649,,,,,
334,34661,,,,,
334,34672,,,,,
346,34683,,,,,
422,34695,,,,,
503,34706,,,,,
451,34717,,,,,
215,34729,,,,,
259,34741,,,,,
336,34752,,,,,
355,34763,,,,,
361,34775,,,,,
365,34786,,,,,
368,34798,,,,,
371,34809,,,,,
375,34821,,,,,
382,34832,,,,,
386,34843,,,,,
393,34855,,,,,
401,34867,,,,,
406,34878,,,,,
415,34889,,,,,
416,34900,,,,,
415,34912,,,,,
405,34924,,,,,
396,34935,,,,,
387,34947,,,,,
374,34958,,,,,
366,34969,,,,,
351,34980,,,,,
340,34993,,,,,
330,35004,,,,,
326,35015,,,,,
323,35026,,,,,
325,35038,,,,,
328,35049,,,,,
328,35061,,,,,
329,35073,,,,,
329,35084,,,,,
331,35095,,,,,
329,35106,,,,,
327,35118,,,,,
325,35130,,,,,
322,35141,,,,,
325,35152,,,,,
328,35164,,,,,
328,35175,,,,,
333,35186,,,,,
330,35198,,,,,
334,35210,,,,,
332,35221,,,,,
323,35232,,,,,
316,35244,,,,,
317,35256,,,,,
317,35267,,,,,
315,35278,,,,,
316,35290,,,,,
315,35301,,,,,
319,35312,,,,,
321,35324,,,,,
346,35336,,,,,
466,35347,,,,,
470,35358,,,,,
335,35369,,,,,
188,35381,,,,,
288,35393,,,,,
334,35404,,,,,
348,35416,,,,,
351,35427,,,,,
353,35438,,,,,
359,35449,,,,,
362,35462,,,,,
369,35473,,,,,
372,35484,,,,,
380,35495,,,,,
387,35507,,,,,
395,35518,,,,,
405,35530,,,,,
409,35542,,,,,
410,35553,,,,,
403,35564,,,,,
395,35575,,,,,
383,35588,,,,,
373,35599,,,,,
361,35610,,,,,
349,35621,,,,,
338,35633,,,,,
326,35644,,,,,
319,35656,,,,,
319,35667,,,,,
320,35679,,,,,
322,35690,,,,,
323,35701,,,,,
326,35713,,,,,
326,35725,,,,,
330,35736,,,,,
329,35747,,,,,
328,35759,,,,,
330,35770,,,,,
331,35781,,,,,
333,35793,,,,,
334,35805,,,,,
331,35816,,,,,
335,35827,,,,,
336,35838,,,,,
328,35850,,,,,
323,35862,,,,,
323,35873,,,,,
323,35885,,,,,
323,35896,,,,,
323,35907,,,,,
323,35918,,,,,
327,35931,,,,,
328,35942,,,,,
361,35953,,,,,
479,35964,,,,,
473,35976,,,,,
343,35988,,,,,
206,35999,,,,,
295,36011,,,,,
334,36022,,,,,
350,36033,,,,,
351,36044,,,,,
355,36057,,,,,
357,36068,,,,,
361,36079,,,,,
367,36090,,,,,
370,36102,,,,,
378,36113,,,,,
383,36125,,,,,
391,36136,,,,,
397,36148,,,,,
402,36159,,,,,
402,36170,,,,,
392,36182,,,,,
386,36194,,,,,
373,36205,,,,,
365,36216,,,,,
354,36228,,,,,
341,36239,,,,,
329,36250,,,,,
319,36262,,,,,
316,36274,,,,,
312,36285,,,,,
315,36296,,,,,
317,36307,,,,,
318,36320,,,,,
325,36331,,,,,
323,36342,,,,,
326,36354,,,,,
326,36365,,,,,
326,36376,,,,,
328,36388,,,,,
328,36400,,,,,
328,36411,,,,,
329,36422,,,,,
324,36433,,,,,
330,36445,,,,,
333,36457,,,,,
323,36468,,,,,
318,36480,,,,,
318,36491,,,,,
315,36502,,,,,
319,36513,,,,,
317,36526,,,,,
318,36537,,,,,
320,36548,,,,,
326,36559,,,,,
372,36571,,,,,
478,36582,,,,,
423,36594,,,,,
253,36605,,,,,
236,36617,,,,,
312,36628,,,,,
337,36639,,,,,
344,36651,,,,,
347,36663,,,,,
352,36674,,,,,
353,36685,,,,,
358,36697,,,,,
362,36708,,,,,
369,36720,,,,,
374,36731,,,,,
380,36743,,,,,
389,36754,,,,,
393,36765,,,,,
398,36776,,,,,
394,36789,,,,,
387,36800,,,,,
379,36811,,,,,
364,36823,,,,,
355,36834,,,,,
341,36845,,,,,
330,36857,,,,,
318,36869,,,,,
312,36880,,,,,
308,36891,,,,,
307,36902,,,,,
308,36914,,,,,
310,36926,,,,,
314,36937,,,,,
317,36948,,,,,
319,36960,,,,,
320,36971,,,,,
318,36982,,,,,
319,36995,,,,,
318,37006,,,,,
321,37017,,,,,
320,37028,,,,,
321,37040,,,,,
317,37052,,,,,
321,37063,,,,,
329,37074,,,,,
321,37086,,,,,
317,37097,,,,,
315,37108,,,,,
316,37121,,,,,
317,37132,,,,,
315,37143,,,,,
319,37154,,,,,
317,37166,,,,,
322,37177,,,,,
339,37189,,,,,
451,37200,,,,,
468,37212,,,,,
359,37223,,,,,
205,37234,,,,,
285,37245,,,,,
332,37258,,,,,
341,37269,,,,,
345,37280,,,,,
349,37292,,,,,
350,37303,,,,,
354,37314,,,,,
351,37326,,,,,
364,37338,,,,,
373,37349,,,,,
379,37360,,,,,
386,37371,,,,,
390,37383,,,,,
398,37395,,,,,
396,37406,,,,,
393,37417,,,,,
382,37429,,,,,
371,37440,,,,,
363,37452,,,,,
350,37464,,,,,
340,37475,,,,,
326,37486,,,,,
317,37497,,,,,
309,37509,,,,,
309,37521,,,,,
310,37532,,,,,
311,37543,,,,,
316,37555,,,,,
316,37566,,,,,
320,37577,,,,,
320,37590,,,,,
320,37601,,,,,
321,37612,,,,,
322,37623,,,,,
323,37635,,,,,
322,37646,,,,,
327,37658,,,,,
324,37669,,,,,
328,37681,,,,,
327,37692,,,,,
333,37703,,,,,
337,37714,,,,,
326,37727,,,,,
322,37738,,,,,
321,37749,,,,,
320,37761,,,,,
322,37772,,,,,
321,37784,,,,,
324,37795,,,,,
325,37807,,,,,
327,37818,,,,,
337,37829,,,,,
415,37840,,,,,
493,37853,,,,,
430,37864,,,,,
213,37875,,,,,
265,37886,,,,,
335,37898,,,,,
351,37909,,,,,
355,37921,,,,,
361,37933,,,,,
364,37944,,,,,
369,37955,,,,,
373,37966,,,,,
379,37978,,,,,
384,37990,,,,,
391,38001,,,,,
399,38012,,,,,
405,38024,,,,,
413,38035,,,,,
414,38046,,,,,
412,38059,,,,,
403,38070,,,,,
393,38081,,,,,
385,38092,,,,,
374,38104,,,,,
365,38115,,,,,
351,38127,,,,,
338,38138,,,,,
329,38150,,,,,
326,38161,,,,,
326,38172,,,,,
326,38184,,,,,
331,38196,,,,,
331,38207,,,,,
333,38218,,,,,
335,38230,,,,,
336,38241,,,,,
335,38253,,,,,
335,38264,,,,,
336,38276,,,,,
334,38287,,,,,
335,38298,,,,,
336,38309,,,,,
338,38322,,,,,
337,38333,,,,,
339,38344,,,,,
343,38355,,,,,
346,38367,,,,,
346,38378,,,,,
334,38390,,,,,
334,38402,,,,,
333,38413,,,,,
332,38424,,,,,
334,38435,,,,,
333,38447,,,,,
335,38459,,,,,
337,38470,,,,,
339,38481,,,,,
363,38493,,,,,
485,38504,,,,,
492,38516,,,,,
355,38528,,,,,
211,38539,,,,,
307,38550,,,,,
353,38561,,,,,
365,38573,,,,,
367,38585,,,,,
371,38596,,,,,
371,38607,,,,,
377,38619,,,,,
381,38630,,,,,
386,38641,,,,,
392,38653,,,,,
400,38665,,,,,
407,38676,,,,,
413,38687,,,,,
419,38699,,,,,
419,38710,,,,,
412,38722,,,,,
402,38733,,,,,
389,38745,,,,,
381,38756,,,,,
368,38767,,,,,
358,38778,,,,,
344,38791,,,,,
334,38802,,,,,
326,38813,,,,,
322,38824,,,,,
324,38836,,,,,
325,38847,,,,,
329,38859,,,,,
329,38871,,,,,
331,38882,,,,,
329,38893,,,,,
328,38904,,,,,
329,38917,,,,,
326,38928,,,,,
327,38939,,,,,
325,38950,,,,,
326,38962,,,,,
323,38973,,,,,
326,38985,,,,,
327,38996,,,,,
326,39008,,,,,
330,39019,,,,,
330,39030,,,,,
337,39042,,,,,
336,39054,,,,,
324,39065,,,,,
324,39076,,,,,
321,39088,,,,,
322,39099,,,,,
321,39110,,,,,
323,39122,,,,,
323,39134,,,,,
324,39145,,,,,
330,39156,,,,,
358,39168,,,,,
487,39179,,,,,
475,39191,,,,,
332,39202,,,,,
200,39214,,,,,
289,39225,,,,,
333,39236,,,,,
343,39248,,,,,
349,39260,,,,,
351,39271,,,,,
353,39282,,,,,
358,39293,,,,,
361,39305,,,,,
368,39317,,,,,
370,39328,,,,,
379,39340,,,,,
384,39351,,,,,
390,39362,,,,,
396,39373,,,,,
395,39386,,,,,
391,39397,,,,,
380,39408,,,,,
367,39419,,,,,
355,39431,,,,,
349,39442,,,,,
340,39454,,,,,
329,39465,,,,,
321,39477,,,,,
315,39488,,,,,
318,39499,,,,,
318,39511,,,,,
323,39523,,,,,
328,39534,,,,,
338,39545,,,,,
353,39557,,,,,
358,39568,,,,,
365,39579,,,,,
367,39591,,,,,
369,39603,,,,,
368,39614,,,,,
371,39625,,,,,
379,39636,,,,,
373,39649,,,,,
380,39660,,,,,
375,39671,,,,,
389,39683,,,,,
392,39694,,,,,
383,39705,,,,,
381,39717,,,,,
379,39729,,,,,
384,39740,,,,,
381,39751,,,,,
383,39762,,,,,
382,39774,,,,,
381,39786,,,,,
387,39797,,,,,
410,39809,,,,,
516,39820,,,,,
542,39831,,,,,
433,39842,,,,,
266,39855,,,,,
345,39866,,,,,
397,39877,,,,,
409,39888,,,,,
411,39900,,,,,
412,39911,,,,,
414,39923,,,,,
415,39934,,,,,
417,39946,,,,,
420,39957,,,,,
422,39968,,,,,
429,39981,,,,,
432,39992,,,,,
451,40003,,,,,
454,40014,,,,,
443,40026,,,,,
448,40037,,,,,
429,40049,,,,,
417,40060,,,,,
403,40072,,,,,
391,40083,,,,,
375,40094,,,,,
367,40105,,,,,
356,40118,,,,,
347,40129,,,,,
350,40140,,,,,
359,40152,,,,,
371,40163,,,,,
383,40174,,,,,
389,40186,,,,,
395,40198,,,,,
398,40209,,,,,
410,40220,,,,,
412,40231,,,,,
426,40243,,,,,
432,40255,,,,,
433,40266,,,,,
436,40278,,,,,
435,40289,,,,,
444,40300,,,,,
447,40311,,,,,
453,40324,,,,,
453,40335,,,,,
462,40346,,,,,
469,40357,,,,,
466,40369,,,,,
462,40381,,,,,
464,40392,,,,,
466,40403,,,,,
465,40415,,,,,
464,40426,,,,,
463,40437,,,,,
459,40450,,,,,
459,40461,,,,,
471,40472,,,,,
578,40483,,,,,
577,40495,,,,,
464,40506,,,,,
293,40518,,,,,
371,40529,,,,,
417,40541,,,,,
420,40552,,,,,
417,40563,,,,,
411,40574,,,,,
404,40587,,,,,
397,40598,,,,,
383,40609,,,,,
387,40621,,,,,
379,40632,,,,,
383,40643,,,,,
383,40655,,,,,
380,40667,,,,,
376,40678,,,,,
366,40689,,,,,
356,40700,,,,,
337,40713,,,,,
323,40724,,,,,
304,40735,,,,,
285,40747,,,,,
266,40758,,,,,
248,40769,,,,,
239,40781,,,,,
225,40793,,,,,
221,40804,,,,,
218,40815,,,,,
221,40826,,,,,
222,40838,,,,,
222,40850,,,,,
223,40861,,,,,
222,40872,,,,,
223,40884,,,,,
220,40895,,,,,
216,40906,,,,,
215,40919,,,,,
212,40930,,,,,
219,40941,,,,,
212,40952,,,,,
218,40964,,,,,
219,40975,,,,,
223,40987,,,,,
225,40998,,,,,
224,41010,,,,,
231,41021,,,,,
219,41032,,,,,
214,41043,,,,,
212,41056,,,,,
212,41067,,,,,
214,41078,,,,,
215,41090,,,,,
222,41101,,,,,
221,41113,,,,,
225,41124,,,,,
235,41136,,,,,
296,41147,,,,,
387,41158,,,,,
317,41169,,,,,
101,41182,,,,,
107,41193,,,,,
224,41204,,,,,
262,41216,,,,,
270,41227,,,,,
277,41238,,,,,
281,41250,,,,,
288,41262,,,,,
290,41273,,,,,
299,41284,,,,,
303,41295,,,,,
310,41307,,,,,
319,41319,,,,,
322,41330,,,,,
331,41341,,,,,
331,41353,,,,,
329,41364,,,,,
323,41375,,,,,
311,41388,,,,,
300,41399,,,,,
289,41410,,,,,
281,41421,,,,,
266,41433,,,,,
258,41445,,,,,
249,41456,,,,,
246,41467,,,,,
241,41479,,,,,
240,41490,,,,,
243,41501,,,,,
244,41513,,,,,
249,41525,,,,,
250,41536,,,,,
249,41547,,,,,
250,41559,,,,,
246,41570,,,,,
248,41582,,,,,
242,41593,,,,,
248,41605,,,,,
249,41616,,,,,
249,41627,,,,,
255,41638,,,,,
258,41651,,,,,
257,41662,,,,,
258,41673,,,,,
254,41684,,,,,
246,41696,,,,,
244,41707,,,,,
245,41719,,,,,
245,41731,,,,,
248,41742,,,,,
249,41753,,,,,
251,41764,,,,,
254,41776,,,,,
260,41788,,,,,
293,41799,,,,,
410,41810,,,,,
389,41822,,,,,
245,41833,,,,,
113,41845,,,,,
226,41857,,,,,
283,41868,,,,,
297,41879,,,,,
301,41890,,,,,
309,41902,,,,,
312,41914,,,,,
320,41925,,,,,
323,41936,,,,,
330,41948,,,,,
337,41959,,,,,
343,41970,,,,,
356,41982,,,,,
362,41994,,,,,
369,42005,,,,,
369,42016,,,,,
364,42028,,,,,
355,42039,,,,,
344,42051,,,,,
337,42062,,,,,
326,42074,,,,,
320,42085,,,,,
309,42096,,,,,
301,42107,,,,,
298,42120,,,,,
295,42131,,,,,
300,42142,,,,,
302,42153,,,,,
307,42165,,,,,
308,42177,,,,,
313,42188,,,,,
314,42200,,,,,
315,42211,,,,,
318,42222,,,,,
315,42233,,,,,
322,42246,,,,,
332,42257,,,,,
333,42268,,,,,
336,42279,,,,,
337,42291,,,,,
343,42302,,,,,
352,42314,,,,,
359,42326,,,,,
355,42337,,,,,
359,42348,,,,,
362,42359,,,,,
361,42371,,,,,
366,42383,,,,,
366,42394,,,,,
368,42405,,,,,
368,42417,,,,,
374,42428,,,,,
419,42439,,,,,
533,42451,,,,,
492,42463,,,,,
301,42474,,,,,
246,42485,,,,,
344,42497,,,,,
383,42508,,,,,
390,42520,,,,,
390,42531,,,,,
394,42543,,,,,
393,42554,,,,,
399,42565,,,,,
401,42577,,,,,
406,42589,,,,,
408,42600,,,,,
414,42611,,,,,
423,42622,,,,,
427,42634,,,,,
440,42646,,,,,
444,42657,,,,,
440,42669,,,,,
439,42680,,,,,
436,42691,,,,,
442,42702,,,,,
438,42715,,,,,
439,42726,,,,,
432,42737,,,,,
431,42748,,,,,
430,42760,,,,,
428,42771,,,,,
433,42783,,,,,
432,42795,,,,,
433,42806,,,,,
432,42817,,,,,
432,42828,,,,,
426,42840,,,,,
422,42852,,,,,
419,42863,,,,,
410,42874,,,,,
407,42886,,,,,
400,42897,,,,,
399,42909,,,,,
399,42920,,,,,
395,42932,,,,,
395,42943,,,,,
385,42954,,,,,
390,42966,,,,,
380,42978,,,,,
365,42989,,,,,
358,43000,,,,,
349,43012,,,,,
347,43023,,,,,
340,43034,,,,,
339,43046,,,,,
333,43058,,,,,
331,43069,,,,,
332,43080,,,,,
356,43091,,,,,
468,43103,,,,,
447,43115,,,,,
303,43126,,,,,
156,43138,,,,,
273,43149,,,,,
327,43160,,,,,
336,43171,,,,,
340,43184,,,,,
340,43195,,,,,
345,43206,,,,,
345,43217,,,,,
349,43229,,,,,
352,43240,,,,,
355,43252,,,,,
362,43264,,,,,
367,43275,,,,,
377,43286,,,,,
380,43297,,,,,
379,43310,,,,,
373,43321,,,,,
361,43332,,,,,
352,43343,,,,,
340,43355,,,,,
332,43366,,,,,
319,43378,,,,,
308,43389,,,,,
300,43401,,,,,
293,43412,,,,,
292,43423,,,,,
292,43435,,,,,
296,43447,,,,,
297,43458,,,,,
302,43469,,,,,
305,43481,,,,,
307,43492,,,,,
313,43503,,,,,
309,43515,,,,,
313,43527,,,,,
308,43538,,,,,
307,43549,,,,,
320,43560,,,,,
323,43572,,,,,
327,43584,,,,,
332,43595,,,,,
331,43607,,,,,
334,43618,,,,,
332,43629,,,,,
324,43641,,,,,
321,43653,,,,,
321,43664,,,,,
317,43675,,,,,
321,43686,,,,,
318,43698,,,,,
321,43710,,,,,
323,43721,,,,,
328,43732,,,,,
361,43744,,,,,
473,43755,,,,,
433,43766,,,,,
296,43779,,,,,
181,43790,,,,,
295,43801,,,,,
343,43812,,,,,
360,43824,,,,,
360,43835,,,,,
366,43847,,,,,
369,43858,,,,,
373,43870,,,,,
376,43881,,,,,
380,43892,,,,,
384,43904,,,,,
386,43916,,,,,
397,43927,,,,,
398,43938,,,,,
403,43950,,,,,
402,43961,,,,,
394,43972,,,,,
386,43984,,,,,
371,43996,,,,,
364,44007,,,,,
352,44018,,,,,
342,44029,,,,,
331,44042,,,,,
322,44053,,,,,
319,44064,,,,,
314,44076,,,,,
317,44087,,,,,
318,44098,,,,,
324,44110,,,,,
326,44122,,,,,
328,44133,,,,,
336,44144,,,,,
335,44155,,,,,
338,44167,,,,,
333,44179,,,,,
339,44190,,,,,
341,44201,,,,,
339,44213,,,,,
341,44224,,,,,
337,44235,,,,,
349,44248,,,,,
343,44259,,,,,
337,44270,,,,,
333,44281,,,,,
333,44293,,,,,
335,44304,,,,,
332,44316,,,,,
334,44327,,,,,
331,44339,,,,,
333,44350,,,,,
340,44361,,,,,
383,44374,,,,,
497,44385,,,,,
427,44396,,,,,
261,44407,,,,,
204,44419,,,,,
306,44430,,,,,
344,44442,,,,,
351,44453,,,,,
354,44465,,,,,
353,44476,,,,,
358,44487,,,,,
357,44498,,,,,
361,44511,,,,,
363,44522,,,,,
366,44533,,,,,
370,44545,,,,,
371,44556,,,,,
379,44567,,,,,
376,44579,,,,,
375,44591,,,,,
366,44602,,,,,
353,44613,,,,,
340,44624,,,,,
325,44636,,,,,
317,44648,,,,,
303,44659,,,,,
293,44670,,,,,
283,44682,,,,,
276,44693,,,,,
274,44704,,,,,
269,44717,,,,,
274,44728,,,,,
271,44739,,,,,
273,44750,,,,,
273,44762,,,,,
273,44774,,,,,
272,44785,,,,,
269,44796,,,,,
270,44808,,,,,
269,44819,,,,,
272,44830,,,,,
272,44843,,,,,
276,44854,,,,,
270,44865,,,,,
274,44876,,,,,
273,44888,,,,,
263,44899,,,,,
261,44911,,,,,
258,44922,,,,,
257,44934,,,,,
259,44945,,,,,
258,44956,,,,,
263,44967,,,,,
263,44980,,,,,
269,44991,,,,,
304,45002,,,,,
419,45014,,,,,
370,45025,,,,,
224,45036,,,,,
134,45048,,,,,
244,45060,,,,,
292,45071,,,,,
303,45082,,,,,
307,45093,,,,,
313,45106,,,,,
317,45117,,,,,
324,45128,,,,,
326,45139,,,,,
335,45151,,,,,
338,45162,,,,,
347,45174,,,,,
357,45186,,,,,
362,45197,,,,,
371,45208,,,,,
367,45219,,,,,
365,45231,,,,,
354,45243,,,,,
343,45254,,,,,
335,45265,,,,,
325,45277,,,,,
318,45288,,,,,
303,45299,,,,,
297,45312,,,,,
291,45323,,,,,
291,45334,,,,,
294,45345,,,,,
295,45357,,,,,
302,45368,,,,,
301,45380,,,,,
306,45391,,,,,
307,45403,,,,,
309,45414,,,,,
310,45425,,,,,
308,45436,,,,,
318,45449,,,,,
314,45460,,,,,
321,45471,,,,,
317,45483,,,,,
321,45494,,,,,
324,45506,,,,,
317,45517,,,,,
313,45529,,,,,
309,45540,,,,,
311,45551,,,,,
309,45562,,,,,
312,45575,,,,,
315,45586,,,,,
313,45597,,,,,
319,45608,,,,,
335,45620,,,,,
437,45631,,,,,
446,45643,,,,,
340,45655,,,,,
172,45666,,,,,
267,45677,,,,,
333,45688,,,,,
345,45700,,,,,
354,45712,,,,,
355,45723,,,,,
357,45734,,,,,
364,45746,,,,,
365,45757,,,,,
373,45768,,,,,
375,45780,,,,,
385,45792,,,,,
391,45803,,,,,
398,45814,,,,,
405,45826,,,,,
403,45838,,,,,
399,45849,,,,,
386,45860,,,,,
378,45872,,,,,
366,45883,,,,,
356,45894,,,,,
344,45906,,,,,
329,45918,,,,,
323,45929,,,,,
313,45940,,,,,
312,45952,,,,,
312,45963,,,,,
314,45975,,,,,
318,45986,,,,,
319,45998,,,,,
324,46009,,,,,
321,46020,,,,,
324,46031,,,,,
321,46044,,,,,
324,46055,,,,,
327,46066,,,,,
325,46077,,,,,
331,46089,,,,,
324,46100,,,,,
330,46112,,,,,
328,46124,,,,,
319,46135,,,,,
315,46146,,,,,
311,46157,,,,,
314,46169,,,,,
309,46181,,,,,
312,46192,,,,,
311,46203,,,,,
313,46215,,,,,
318,46226,,,,,
348,46238,,,,,
463,46249,,,,,
411,46261,,,,,
275,46272,,,,,
179,46283,,,,,
291,46295,,,,,
336,46307,,,,,
346,46318,,,,,
353,46329,,,,,
353,46341,,,,,
358,46352,,,,,
362,46363,,,,,
367,46375,,,,,
372,46387,,,,,
377,46398,,,,,
385,46409,,,,,
390,46420,,,,,
400,46432,,,,,
403,46444,,,,,
402,46455,,,,,
396,46467,,,,,
384,46478,,,,,
376,46489,,,,,
361,46500,,,,,
352,46513,,,,,
336,46524,,,,,
327,46535,,,,,
317,46546,,,,,
311,46558,,,,,
312,46570,,,,,
309,46581,,,,,
316,46593,,,,,
317,46604,,,,,
319,46615,,,,,
322,46626,,,,,
320,46639,,,,,
321,46650,,,,,
319,46661,,,,,
321,46672,,,,,
319,46684,,,,,
324,46695,,,,,
321,46707,,,,,
325,46718,,,,,
325,46730,,,,,
326,46741,,,,,
332,46752,,,,,
320,46764,,,,,
315,46776,,,,,
313,46787,,,,,
309,46798,,,,,
312,46810,,,,,
309,46821,,,,,
310,46832,,,,,
310,46844,,,,,
311,46856,,,,,
326,46867,,,,,
410,46878,,,,,
455,46889,,,,,
362,46901,,,,,
161,46913,,,,,
245,46924,,,,,
320,46936,,,,,
342,46947,,,,,
343,46958,,,,,
348,46970,,,,,
349,46982,,,,,
356,46993,,,,,
358,47004,,,,,
363,47015,,,,,
368,47027,,,,,
372,47039,,,,,
382,47050,,,,,
384,47062,,,,,
392,47073,,,,,
391,47084,,,,,
389,47095,,,,,
379,47108,,,,,
368,47119,,,,,
361,47130,,,,,
348,47141,,,,,
340,47153,,,,,
327,47164,,,,,
319,47176,,,,,
313,47187,,,,,
309,47199,,,,,
313,47210,,,,,
314,47221,,,,,
318,47233,,,,,
318,47245,,,,,
321,47256,,,,,
322,47267,,,,,
321,47279,,,,,
320,47290,,,,,
317,47302,,,,,
319,47313,,,,,
315,47325,,,,,
316,47336,,,,,
318,47347,,,,,
319,47358,,,,,
321,47371,,,,,
324,47382,,,,,
325,47393,,,,,
327,47405,,,,,
326,47416,,,,,
317,47427,,,,,
311,47439,,,,,
312,47451,,,,,
310,47462,,,,,
312,47473,,,,,
309,47484,,,,,
313,47496,,,,,
315,47508,,,,,
318,47519,,,,,
349,47531,,,,,
459,47542,,,,,
447,47553,,,,,
309,47564,,,,,
168,47577,,,,,
283,47588,,,,,
335,47599,,,,,
352,47610,,,,,
351,47622,,,,,
358,47633,,,,,
357,47645,,,,,
366,47656,,,,,
369,47668,,,,,
373,47679,,,,,
383,47690,,,,,
386,47703,,,,,
397,47714,,,,,
401,47725,,,,,
406,47736,,,,,
404,47748,,,,,
397,47759,,,,,
390,47771,,,,,
376,47782,,,,,
371,47794,,,,,
357,47805,,,,,
352,47816,,,,,
339,47827,,,,,
328,47840,,,,,
324,47851,,,,,
319,47862,,,,,
323,47874,,,,,
323,47885,,,,,
327,47896,,,,,
329,47908,,,,,
329,47920,,,,,
333,47931,,,,,
328,47942,,,,,
332,47953,,,,,
330,47965,,,,,
331,47977,,,,,
328,47988,,,,,
329,48000,,,,,
335,48011,,,,,
332,48022,,,,,
341,48034,,,,,
335,48046,,,,,
343,48057,,,,,
343,48068,,,,,
335,48079,,,,,
333,48091,,,,,
329,48103,,,,,
332,48114,,,,,
326,48125,,,,,
329,48137,,,,,
330,48148,,,,,
328,48159,,,,,
330,48172,,,,,
341,48183,,,,,
433,48194,,,,,
488,48205,,,,,
403,48217,,,,,
176,48228,,,,,
250,48240,,,,,
325,48251,,,,,
347,48263,,,,,
353,48274,,,,,
353,48285,,,,,
358,48296,,,,,
362,48309,,,,,
367,48320,,,,,
371,48331,,,,,
373,48343,,,,,
381,48354,,,,,
384,48365,,,,,
392,48377,,,,,
396,48389,,,,,
395,48400,,,,,
392,48411,,,,,
378,48422,,,,,
371,48435,,,,,
361,48446,,,,,
356,48457,,,,,
345,48468,,,,,
334,48480,,,,,
326,48491,,,,,
315,48503,,,,,
318,48515,,,,,
315,48526,,,,,
318,48537,,,,,
319,48548,,,,,
320,48560,,,,,
321,48572,,,,,
321,48583,,,,,
326,48594,,,,,
322,48606,,,,,
324,48617,,,,,
321,48628,,,,,
319,48641,,,,,
322,48652,,,,,
318,48663,,,,,
325,48674,,,,,
317,48686,,,,,
324,48697,,,,,
322,48709,,,,,
313,48720,,,,,
308,48732,,,,,
303,48743,,,,,
305,48754,,,,,
301,48766,,,,,
302,48778,,,,,
302,48789,,,,,
303,48800,,,,,
307,48812,,,,,
323,48823,,,,,
415,48835,,,,,
452,48846,,,,,
360,48858,,,,,
149,48869,,,,,
234,48880,,,,,
309,48891,,,,,
330,48904,,,,,
339,48915,,,,,
337,48926,,,,,
342,48937,,,,,
346,48949,,,,,
348,48960,,,,,
355,48972,,,,,
358,48984,,,,,
367,48995,,,,,
369,49006,,,,,
377,49017,,,,,
380,49029,,,,,
381,49041,,,,,
378,49052,,,,,
368,49063,,,,,
361,49075,,,,,
347,49086,,,,,
339,49097,,,,,
329,49110,,,,,
319,49121,,,,,
312,49132,,,,,
306,49143,,,,,
305,49155,,,,,
304,49167,,,,,
308,49178,,,,,
308,49189,,,,,
313,49201,,,,,
316,49212,,,,,
315,49223,,,,,
319,49235,,,,,
314,49247,,,,,
317,49258,,,,,
316,49269,,,,,
314,49281,,,,,
315,49292,,,,,
314,49304,,,,,
319,49315,,,,,
319,49327,,,,,
324,49338,,,,,
320,49349,,,,,
327,49360,,,,,
323,49373,,,,,
312,49384,,,,,
313,49395,,,,,
307,49406,,,,,
310,49418,,,,,
309,49429,,,,,
310,49441,,,,,
312,49453,,,,,
312,49464,,,,,
320,49475,,,,,
359,49486,,,,,
473,49499,,,,,
409,49510,,,,,
241,49521,,,,,
183,49532,,,,,
294,49544,,,,,
339,49555,,,,,
343,49567,,,,,
350,49579,,,,,
351,49590,,,,,
355,49601,,,,,
359,49612,,,,,
361,49624,,,,,
370,49636,,,,,
373,49647,,,,,
382,49658,,,,,
387,49670,,,,,
395,49681,,,,,
400,49692,,,,,
398,49704,,,,,
395,49716,,,,,
381,49727,,,,,
374,49738,,,,,
361,49750,,,,,
350,49761,,,,,
338,49773,,,,,
325,49784,,,,,
319,49796,,,,,
310,49807,,,,,
311,49818,,,,,
310,49829,,,,,
313,49842,,,,,
316,49853,,,,,
314,49864,,,,,
320,49875,,,,,
317,49887,,,,,
321,49899,,,,,
317,49910,,,,,
318,49922,,,,,
319,49933,,,,,
317,49944,,,,,
320,49955,,,,,
317,49968,,,,,
319,49979,,,,,
319,49990,,,,,
325,50001,,,,,
325,50013,,,,,
325,50024,,,,,
331,50036,,,,,
335,50048,,,,,
339,50059,,,,,
327,50070,,,,,
321,50081,,,,,
320,50093,,,,,
317,50105,,,,,
322,50116,,,,,
319,50127,,,,,
322,50139,,,,,
320,50150,,,,,
325,50161,,,,,
344,50173,,,,,
436,50185,,,,,
463,50196,,,,,
359,50207,,,,,
160,50219,,,,,
257,50231,,,,,
334,50242,,,,,
354,50253,,,,,
356,50265,,,,,
361,50276,,,,,
361,50287,,,,,
368,50299,,,,,
372,50311,,,,,
376,50322,,,,,
384,50333,,,,,
387,50344,,,,,
396,50356,,,,,
399,50368,,,,,
408,50379,,,,,
408,50391,,,,,
405,50402,,,,,
396,50413,,,,,
385,50424,,,,,
377,50437,,,,,
363,50448,,,,,
355,50459,,,,,
342,50470,,,,,
334,50482,,,,,
326,50493,,,,,
321,50505,,,,,
322,50516,,,,,
324,50528,,,,,
327,50539,,,,,
328,50550,,,,,
332,50562,,,,,
331,50574,,,,,
331,50585,,,,,
333,50596,,,,,
330,50608,,,,,
333,50619,,,,,
331,50631,,,,,
333,50642,,,,,
332,50654,,,,,
331,50665,,,,,
336,50676,,,,,
337,50688,,,,,
340,50700,,,,,
343,50711,,,,,
343,50722,,,,,
351,50734,,,,,
347,50745,,,,,
339,50756,,,,,
332,50768,,,,,
334,50780,,,,,
332,50791,,,,,
335,50802,,,,,
333,50813,,,,,
332,50825,,,,,
337,50837,,,,,
340,50848,,,,,
373,50860,,,,,
483,50871,,,,,
459,50882,,,,,
331,50893,,,,,
183,50906,,,,,
295,50917,,,,,
351,50928,,,,,
369,50939,,,,,
371,50951,,,,,
377,50963,,,,,
380,50974,,,,,
382,50985,,,,,
387,50997,,,,,
389,51008,,,,,
398,51019,,,,,
401,51032,,,,,
409,51043,,,,,
415,51054,,,,,
418,51065,,,,,
423,51077,,,,,
416,51088,,,,,
411,51100,,,,,
398,51111,,,,,
389,51123,,,,,
379,51134,,,,,
367,51145,,,,,
359,51156,,,,,
347,51169,,,,,
344,51180,,,,,
338,51191,,,,,
339,51203,,,,,
340,51214,,,,,
342,51225,,,,,
347,51237,,,,,
347,51249,,,,,
351,51260,,,,,
346,51271,,,,,
346,51282,,,,,
344,51294,,,,,
339,51306,,,,,
336,51317,,,,,
331,51329,,,,,
330,51340,,,,,
328,51351,,,,,
332,51363,,,,,
329,51375,,,,,
332,51386,,,,,
329,51397,,,,,
333,51408,,,,,
334,51420,,,,,
322,51432,,,,,
318,51443,,,,,
317,51454,,,,,
313,51466,,,,,
313,51477,,,,,
311,51488,,,,,
314,51501,,,,,
312,51512,,,,,
317,51523,,,,,
347,51534,,,,,
457,51546,,,,,
431,51557,,,,,
299,51569,,,,,
157,51580,,,,,
267,51592,,,,,
321,51603,,,,,
335,51614,,,,,
337,51625,,,,,
342,51638,,,,,
339,51649,,,,,
345,51660,,,,,
345,51672,,,,,
353,51683,,,,,
354,51695,,,,,
359,51706,,,,,
368,51718,,,,,
370,51729,,,,,
378,51740,,,,,
375,51751,,,,,
370,51764,,,,,
359,51775,,,,,
347,51786,,,,,
339,51798,,,,,
325,51809,,,,,
318,51820,,,,,
307,51832,,,,,
299,51844,,,,,
294,51855,,,,,
292,51866,,,,,
294,51877,,,,,
293,51889,,,,,
298,51901,,,,,
301,51912,,,,,
303,51923,,,,,
304,51935,,,,,
304,51946,,,,,
305,51957,,,,,
301,51970,,,,,
304,51981,,,,,
302,51992,,,,,
301,52003,,,,,
301,52015,,,,,
298,52026,,,,,
300,52038,,,,,
299,52049,,,,,
304,52061,,,,,
305,52072,,,,,
307,52083,,,,,
310,52096,,,,,
310,52107,,,,,
319,52118,,,,,
316,52129,,,,,
308,52141,,,,,
302,52152,,,,,
303,52164,,,,,
303,52175,,,,,
302,52187,,,,,
305,52198,,,,,
301,52209,,,,,
308,52220,,,,,
309,52233,,,,,
340,52244,,,,,
452,52255,,,,,
424,52267,,,,,
297,52278,,,,,
153,52289,,,,,
272,52301,,,,,
324,52313,,,,,
341,52324,,,,,
346,52335,,,,,
348,52346,,,,,
354,52358,,,,,
353,52370,,,,,
361,52381,,,,,
363,52392,,,,,
371,52404,,,,,
377,52415,,,,,
384,52427,,,,,
392,52439,,,,,
393,52450,,,,,
398,52461,,,,,
391,52472,,,,,
383,52484,,,,,
372,52496,,,,,
362,52507,,,,,
350,52518,,,,,
336,52530,,,,,
330,52541,,,,,
318,52552,,,,,
316,52564,,,,,
314,52576,,,,,
315,52587,,,,,
317,52598,,,,,
317,52610,,,,,
322,52621,,,,,
321,52633,,,,,
324,52644,,,,,
325,52656,,,,,
323,52667,,,,,
324,52678,,,,,
320,52689,,,,,
323,52702,,,,,
319,52713,,,,,
320,52724,,,,,
319,52736,,,,,
317,52747,,,,,
317,52758,,,,,
316,52770,,,,,
319,52782,,,,,
319,52793,,,,,
323,52804,,,,,
326,52815,,,,,
323,52828,,,,,
329,52839,,,,,
327,52850,,,,,
337,52861,,,,,
337,52873,,,,,
330,52884,,,,,
324,52896,,,,,
325,52908,,,,,
324,52919,,,,,
323,52930,,,,,
325,52941,,,,,
324,52953,,,,,
326,52965,,,,,
328,52976,,,,,
345,52987,,,,,
434,52999,,,,,
464,53010,,,,,
374,53021,,,,,
162,53033,,,,,
254,53045,,,,,
334,53056,,,,,
357,53067,,,,,
362,53079,,,,,
364,53090,,,,,
370,53102,,,,,
371,53113,,,,,
377,53125,,,,,
379,53136,,,,,
384,53147,,,,,
392,53159,,,,,
396,53171,,,,,
406,53182,,,,,
411,53193,,,,,
414,53204,,,,,
409,53216,,,,,
400,53228,,,,,
392,53239,,,,,
378,53251,,,,,
369,53262,,,,,
354,53273,,,,,
346,53284,,,,,
334,53297,,,,,
326,53308,,,,,
326,53319,,,,,
323,53330,,,,,
327,53342,,,,,
325,53353,,,,,
331,53365,,,,,
331,53377,,,,,
331,53388,,,,,
334,53399,,,,,
331,53410,,,,,
333,53422,,,,,
328,53434,,,,,
331,53445,,,,,
330,53456,,,,,
329,53468,,,,,
330,53479,,,,,
327,53490,,,,,
329,53502,,,,,
329,53514,,,,,
334,53525,,,,,
336,53536,,,,,
336,53548,,,,,
340,53560,,,,,
339,53571,,,,,
349,53582,,,,,
344,53594,,,,,
339,53605,,,,,
333,53616,,,,,
332,53628,,,,,
332,53640,,,,,
331,53651,,,,,
332,53662,,,,,
332,53673,,,,,
333,53685,,,,,
337,53697,,,,,
382,53708,,,,,
498,53720,,,,,
442,53731,,,,,
299,53742,,,,,
192,53753,,,,,
305,53766,,,,,
355,53777,,,,,
370,53788,,,,,
376,53799,,,,,
377,53811,,,,,
383,53822,,,,,
385,53834,,,,,
393,53846,,,,,
395,53857,,,,,
399,53868,,,,,
409,53879,,,,,
414,53892,,,,,
425,53903,,,,,
424,53914,,,,,
427,53925,,,,,
418,53937,,,,,
409,53948,,,,,
398,53960,,,,,
385,53971,,,,,
377,53983,,,,,
365,53994,,,,,
356,54005,,,,,
346,54017,,,,,
341,54029,,,,,
339,54040,,,,,
338,54051,,,,,
343,54063,,,,,
344,54074,,,,,
350,54085,,,,,
350,54097,,,,,
353,54109,,,,,
355,54120,,,,,
351,54131,,,,,
353,54142,,,,,
351,54154,,,,,
353,54166,,,,,
351,54177,,,,,
351,54189,,,,,
352,54200,,,,,
352,54211,,,,,
358,54222,,,,,
354,54235,,,,,
360,54246,,,,,
354,54257,,,,,
360,54268,,,,,
363,54280,,,,,
352,54292,,,,,
349,54303,,,,,
344,54315,,,,,
344,54326,,,,,
341,54337,,,,,
340,54348,,,,,
341,54361,,,,,
338,54372,,,,,
341,54383,,,,,
356,54394,,,,,
454,54406,,,,,
480,54417,,,,,
380,54429,,,,,
183,54440,,,,,
261,54452,,,,,
330,54463,,,,,
346,54474,,,,,
353,54486,,,,,
355,54498,,,,,
356,54509,,,,,
356,54520,,,,,
357,54532,,,,,
361,54543,,,,,
361,54554,,,,,
370,54566,,,,,
373,54578,,,,,
379,54589,,,,,
381,54600,,,,,
379,54611,,,,,
377,54624,,,,,
364,54635,,,,,
353,54646,,,,,
337,54658,,,,,
325,54669,,,,,
314,54680,,,,,
300,54692,,,,,
294,54704,,,,,
285,54715,,,,,
282,54726,,,,,
279,54737,,,,,
281,54749,,,,,
285,54761,,,,,
285,54772,,,,,
289,54784,,,,,
286,54795,,,,,
291,54806,,,,,
290,54817,,,,,
291,54830,,,,,
290,54841,,,,,
288,54852,,,,,
290,54863,,,,,
287,54875,,,,,
286,54886,,,,,
285,54898,,,,,
289,54909,,,,,
288,54921,,,,,
290,54932,,,,,
289,54943,,,,,
293,54955,,,,,
301,54967,,,,,
292,54978,,,,,
287,54989,,,,,
286,55001,,,,,
283,55012,,,,,
286,55024,,,,,
284,55035,,,,,
286,55047,,,,,
285,55058,,,,,
289,55069,,,,,
304,55080,,,,,
386,55093,,,,,
445,55104,,,,,
351,55115,,,,,
150,55127,,,,,
213,55138,,,,,
289,55149,,,,,
314,55161,,,,,
319,55173,,,,,
324,55184,,,,,
326,55195,,,,,
332,55206,,,,,
333,55218,,,,,
338,55230,,,,,
344,55241,,,,,
349,55252,,,,,
357,55264,,,,,
361,55275,,,,,
371,55286,,,,,
373,55299,,,,,
370,55310,,,,,
364,55321,,,,,
348,55332,,,,,
339,55344,,,,,
324,55356,,,,,
315,55367,,,,,
299,55378,,,,,
291,55390,,,,,
289,55401,,,,,
283,55412,,,,,
281,55425,,,,,
273,55436,,,,,
283,55447,,,,,
285,55458,,,,,
288,55470,,,,,
290,55481,,,,,
291,55493,,,,,
293,55504,,,,,
292,55516,,,,,
293,55527,,,,,
292,55538,,,,,
293,55549,,,,,
292,55562,,,,,
287,55573,,,,,
288,55584,,,,,
289,55596,,,,,
297,55607,,,,,
295,55618,,,,,
297,55630,,,,,
300,55642,,,,,
302,55653,,,,,
311,55664,,,,,
304,55675,,,,,
298,55687,,,,,
296,55699,,,,,
295,55710,,,,,
294,55721,,,,,
295,55733,,,,,
298,55744,,,,,
298,55756,,,,,
303,55768,,,,,
312,55779,,,,,
367,55790,,,,,
467,55801,,,,,
413,55813,,,,,
215,55825,,,,,
193,55836,,,,,
296,55847,,,,,
331,55859,,,,,
338,55870,,,,,
340,55881,,,,,
347,55894,,,,,
352,55905,,,,,
356,55916,,,,,
362,55927,,,,,
369,55939,,,,,
376,55950,,,,,
384,55962,,,,,
391,55973,,,,,
398,55985,,,,,
404,55996,,,,,
404,56007,,,,,
400,56018,,,,,
391,56031,,,,,
382,56042,,,,,
369,56053,,,,,
356,56065,,,,,
344,56076,,,,,
332,56088,,,,,
326,56099,,,,,
323,56111,,,,,
320,56122,,,,,
321,56133,,,,,
324,56144,,,,,
323,56157,,,,,
325,56168,,,,,
331,56179,,,,,
335,56190,,,,,
333,56202,,,,,
332,56213,,,,,
333,56225,,,,,
331,56237,,,,,
334,56248,,,,,
331,56259,,,,,
334,56270,,,,,
333,56282,,,,,
332,56294,,,,,
335,56305,,,,,
336,56316,,,,,
344,56328,,,,,
342,56339,,,,,
348,56350,,,,,
348,56363,,,,,
341,56374,,,,,
342,56385,,,,,
339,56396,,,,,
340,56408,,,,,
340,56419,,,,,
340,56431,,,,,
340,56442,,,,,
345,56454,,,,,
351,56465,,,,,
370,56476,,,,,
480,56488,,,,,
500,56500,,,,,
402,56511,,,,,
202,56522,,,,,
293,56534,,,,,
356,56545,,,,,
371,56557,,,,,
374,56568,,,,,
377,56580,,,,,
382,56591,,,,,
385,56602,,,,,
391,56613,,,,,
394,56626,,,,,
397,56637,,,,,
404,56648,,,,,
411,56659,,,,,
421,56671,,,,,
426,56682,,,,,
426,56694,,,,,
422,56706,,,,,
410,56717,,,,,
398,56728,,,,,
387,56739,,,,,
378,56751,,,,,
364,56763,,,,,
353,56774,,,,,
344,56785,,,,,
336,56797,,,,,
332,56808,,,,,
332,56820,,,,,
334,56832,,,,,
337,56843,,,,,
337,56854,,,,,
341,56865,,,,,
343,56877,,,,,
346,56889,,,,,
345,56900,,,,,
347,56911,,,,,
346,56923,,,,,
342,56934,,,,,
341,56945,,,,,
339,56957,,,,,
341,56969,,,,,
340,56980,,,,,
344,56991,,,,,
340,57003,,,,,
345,57014,,,,,
349,57026,,,,,
340,57037,,,,,
332,57049,,,,,
330,57060,,,,,
329,57071,,,,,
326,57082,,,,,
329,57095,,,,,
330,57106,,,,,
331,57117,,,,,
334,57128,,,,,
341,57140,,,,,
401,57151,,,,,
503,57163,,,,,
439,57175,,,,,
239,57186,,,,,
229,57197,,,,,
314,57208,,,,,
348,57221,,,,,
354,57232,,,,,
359,57243,,,,,
362,57254,,,,,
365,57266,,,,,
367,57277,,,,,
372,57289,,,,,
374,57300,,,,,
381,57312,,,,,
387,57323,,,,,
394,57334,,,,,
401,57346,,,,,
402,57358,,,,,
401,57369,,,,,
393,57380,,,,,
383,57392,,,,,
376,57403,,,,,
363,57414,,,,,
353,57426,,,,,
341,57438,,,,,
331,57449,,,,,
321,57460,,,,,
320,57472,,,,,
319,57483,,,,,
319,57495,,,,,
322,57506,,,,,
321,57518,,,,,
327,57529,,,,,
327,57540,,,,,
329,57552,,,,,
332,57564,,,,,
333,57575,,,,,
332,57586,,,,,
329,57597,,,,,
328,57609,,,,,
327,57621,,,,,
326,57632,,,,,
325,57644,,,,,
326,57655,,,,,
330,57666,,,,,
326,57677,,,,,
331,57690,,,,,
327,57701,,,,,
337,57712,,,,,
337,57723,,,,,
324,57735,,,,,
320,57746,,,,,
319,57758,,,,,
320,57769,,,,,
318,57781,,,,,
318,57792,,,,,
315,57803,,,,,
319,57815,,,,,
322,57827,,,,,
334,57838,,,,,
418,57849,,,,,
479,57861,,,,,
408,57872,,,,,
187,57883,,,,,
242,57895,,,,,
319,57907,,,,,
342,57918,,,,,
350,57929,,,,,
349,57940,,,,,
352,57953,,,,,
354,57964,,,,,
358,57975,,,,,
365,57987,,,,,
368,57998,,,,,
375,58009,,,,,
381,58021,,,,,
387,58033,,,,,
392,58044,,,,,
399,58055,,,,,
395,58066,,,,,
387,58078,,,,,
378,58090,,,,,
364,58101,,,,,
354,58113,,,,,
342,58124,,,,,
327,58135,,,,,
321,58146,,,,,
311,58159,,,,,
308,58170,,,,,
307,58181,,,,,
310,58192,,,,,
310,58204,,,,,
311,58215,,,,,
316,58227,,,,,
317,58238,,,,,
321,58250,,,,,
319,58261,,,,,
320,58272,,,,,
319,58285,,,,,
317,58296,,,,,
318,58307,,,,,
315,58318,,,,,
317,58330,,,,,
315,58341,,,,,
315,58353,,,,,
313,58364,,,,,
315,58376,,,,,
319,58387,,,,,
317,58398,,,,,
323,58409,,,,,
322,58422,,,,,
327,58433,,,,,
328,58444,,,,,
317,58456,,,,,
314,58467,,,,,
314,58478,,,,,
315,58490,,,,,
312,58502,,,,,
313,58513,,,,,
315,58524,,,,,
314,58535,,,,,
319,58547,,,,,
331,58559,,,,,
411,58570,,,,,
478,58582,,,,,
417,58593,,,,,
189,58604,,,,,
243,58615,,,,,
317,58628,,,,,
340,58639,,,,,
346,58650,,,,,
348,58661,,,,,
353,58673,,,,,
356,58685,,,,,
361,58696,,,,,
366,58707,,,,,
374,58719,,,,,
381,58730,,,,,
385,58741,,,,,
394,58754,,,,,
399,58765,,,,,
403,58776,,,,,
401,58787,,,,,
393,58799,,,,,
386,58810,,,,,
370,58822,,,,,
359,58833,,,,,
347,58845,,,,,
336,58856,,,,,
325,58867,,,,,
315,58878,,,,,
310,58891,,,,,
309,58902,,,,,
312,58913,,,,,
313,58925,,,,,
318,58936,,,,,
320,58947,,,,,
322,58959,,,,,
320,58971,,,,,
319,58982,,,,,
319,58993,,,,,
320,59004,,,,,
319,59017,,,,,
319,59028,,,,,
316,59039,,,,,
315,59051,,,,,
314,59062,,,,,
315,59073,,,,,
315,59085,,,,,
317,59097,,,,,
320,59108,,,,,
321,59119,,,,,
319,59130,,,,,
319,59142,,,,,
325,59154,,,,,
329,59165,,,,,
335,59176,,,,,
330,59188,,,,,
321,59199,,,,,
320,59210,,,,,
317,59223,,,,,
318,59234,,,,,
320,59245,,,,,
321,59256,,,,,
320,59268,,,,,
323,59279,,,,,
330,59291,,,,,
368,59302,,,,,
490,59314,,,,,
469,59325,,,,,
290,59336,,,,,
204,59347,,,,,
301,59360,,,,,
339,59371,,,,,
348,59382,,,,,
353,59394,,,,,
356,59405,,,,,
359,59417,,,,,
364,59428,,,,,
365,59440,,,,,
370,59451,,,,,
373,59462,,,,,
385,59473,,,,,
391,59486,,,,,
397,59497,,,,,
401,59508,,,,,
401,59520,,,,,
397,59531,,,,,
389,59542,,,,,
377,59554,,,,,
366,59566,,,,,
354,59577,,,,,
343,59588,,,,,
330,59599,,,,,
320,59611,,,,,
312,59623,,,,,
312,59634,,,,,
311,59645,,,,,
313,59657,,,,,
315,59668,,,,,
317,59679,,,,,
318,59692,,,,,
319,59703,,,,,
323,59714,,,,,
321,59725,,,,,
321,59737,,,,,
320,59749,,,,,
319,59760,,,,,
319,59771,,,,,
317,59783,,,,,
318,59794,,,,,
318,59805,,,,,
318,59817,,,,,
319,59829,,,,,
318,59840,,,,,
321,59851,,,,,
323,59863,,,,,
323,59874,,,,,
324,59886,,,,,
327,59897,,,,,
332,59909,,,,,
335,59920,,,,,
328,59931,,,,,
320,59942,,,,,
322,59955,,,,,
319,59966,,,,,
320,59977,,,,,
319,59988,,,,,
320,60000,,,,,
321,60011,,,,,
