EKG,T
304,2
300,3
304,4
317,5
340,6
366,7
393,8
417,9
428,10
436,11
395,19
297,27
430,35
311,45
410,53
367,61
320,69
414,77
284,86
419,94
338,102
377,112
352,121
337,131
368,140
301,149
388,158
277,167
401,178
268,187
410,196
275,205
410,215
302,224
397,233
326,242
370,252
342,262
335,271
362,280
303,289
385,299
281,308
403,318
271,327
407,336
267,346
404,355
293,364
395,373
321,384
375,393
340,402
339,411
361,420
344,430
436,439
269,449
346,458
251,467
393,477
269,486
409,495
293,504
399,515
321,524
383,533
341,542
349,551
361,561
317,570
383,580
289,589
405,599
279,608
417,617
283,626
422,635
299,646
409,655
321,664
384,673
336,683
348,692
357,701
315,711
378,720
285,730
395,739
269,748
404,757
269,766
412,777
289,786
406,795
320,804
393,814
339,823
357,832
356,841
323,851
375,861
291,870
398,879
279,888
410,898
271,907
409,917
281,926
401,935
312,945
390,954
333,963
360,972
353,983
331,992
411,1001
370,1011
326,1021
283,1032
333,1043
354,1053
340,1063
380,1074
333,1084
397,1094
321,1104
405,1116
307,1126
414,1136
291,1146
422,1157
283,1167
423,1178
281,1188
419,1199
282,1209
411,1219
288,1229
403,1240
295,1251
387,1261
309,1271
371,1282
326,1292
359,1302
346,1313
347,1324
364,1334
337,1344
387,1354
330,1364
403,1376
318,1386
411,1396
300,1406
414,1417
282,1427
419,1437
278,1448
417,1459
273,1469
409,1479
274,1489
400,1500
278,1511
390,1521
290,1531
377,1542
348,1552
431,1562
323,1572
319,1584
329,1594
340,1604
365,1614
331,1625
388,1635
324,1646
403,1656
311,1667
411,1677
292,1687
418,1697
280,1709
422,1719
277,1729
423,1739
277,1750
419,1760
281,1770
411,1781
287,1792
396,1802
294,1812
376,1822
309,1832
363,1844
330,1854
352,1864
351,1874
341,1885
374,1895
331,1905
393,1916
320,1927
403,1937
304,1947
412,1957
287,1968
421,1979
280,1989
422,1999
271,2010
411,2020
267,2030
402,2041
269,2052
392,2062
280,2072
380,2082
304,2093
422,2103
364,2114
324,2124
302,2135
341,2145
362,2155
338,2165
384,2177
329,2187
399,2197
316,2207
406,2217
302,2228
409,2238
295,2249
409,2259
294,2270
403,2280
296,2290
395,2300
300,2312
386,2322
309,2332
378,2342
319,2353
361,2363
330,2374
347,2384
341,2395
335,2405
355,2415
328,2425
372,2436
321,2447
386,2457
316,2467
391,2478
305,2488
392,2498
293,2509
397,2520
289,2530
395,2540
284,2550
383,2561
283,2571
375,2582
288,2592
369,2603
295,2613
362,2623
316,2633
394,2644
370,2655
303,2665
306,2675
323,2685
358,2696
322,2707
373,2717
316,2727
385,2738
308,2748
395,2758
297,2768
401,2780
284,2790
408,2800
275,2810
408,2821
272,2831
404,2842
275,2852
398,2863
279,2873
390,2883
282,2893
374,2904
292,2915
358,2925
309,2935
348,2946
329,2956
338,2966
351,2977
329,2988
373,2998
319,3008
388,3018
306,3028
393,3040
293,3050
402,3060
275,3070
400,3081
260,3091
392,3101
256,3112
386,3123
256,3133
380,3143
259,3153
369,3164
300,3175
407,3185
275,3195
309,3206
289,3216
334,3226
324,3236
324,3248
346,3258
313,3268
363,3278
309,3289
380,3299
297,3310
390,3320
283,3331
398,3341
270,3351
400,3361
261,3373
387,3383
245,3393
375,3403
246,3414
368,3424
253,3434
359,3445
259,3456
341,3466
271,3476
331,3486
295,3496
327,3508
326,3518
326,3528
355,3538
321,3549
374,3559
305,3569
374,3580
285,3591
376,3601
267,3611
384,3621
255,3632
385,3643
247,3653
381,3663
247,3674
377,3684
260,3694
416,3705
297,3716
342,3726
255,3736
354,3746
306,3757
347,3767
322,3778
336,3788
341,3799
326,3809
361,3819
317,3829
380,3841
311,3851
395,3861
302,3871
406,3881
279,3892
399,3902
255,3913
386,3923
253,3934
384,3944
254,3954
381,3964
260,3976
373,3986
267,3996
365,4006
287,4017
356,4027
312,4038
351,4048
333,4059
342,4069
345,4079
318,4089
355,4100
310,4111
375,4121
302,4131
385,4142
287,4152
394,4162
273,4173
399,4184
264,4194
388,4204
270,4214
437,4225
276,4235
349,4246
247,4256
376,4267
286,4277
365,4287
297,4297
350,4308
319,4319
348,4329
343,4339
342,4349
367,4360
335,4371
389,4381
328,4391
402,4402
317,4412
409,4422
300,4432
412,4444
289,4454
412,4464
282,4474
403,4485
277,4495
397,4506
276,4516
390,4527
283,4537
381,4547
295,4557
369,4568
314,4579
359,4589
334,4599
351,4610
352,4620
331,4630
359,4641
319,4652
375,4662
310,4672
386,4682
295,4692
387,4704
272,4714
390,4724
315,4734
433,4745
238,4755
361,4765
260,4776
394,4787
270,4797
390,4807
278,4817
382,4828
295,4839
373,4849
317,4859
365,4870
339,4880
356,4890
360,4900
345,4912
382,4922
337,4932
399,4942
323,4953
406,4963
307,4974
411,4984
286,4995
414,5005
278,5015
419,5025
279,5037
418,5047
278,5057
411,5067
283,5078
405,5088
296,5098
395,5109
316,5120
388,5130
338,5140
375,5150
355,5160
359,5172
375,5182
351,5192
397,5202
340,5213
408,5223
313,5233
426,5244
361,5255
422,5265
241,5275
402,5285
282,5296
425,5307
279,5317
419,5327
280,5338
413,5348
288,5358
404,5369
300,5380
392,5390
319,5400
378,5410
336,5421
365,5431
355,5442
350,5452
374,5463
340,5473
395,5483
328,5493
400,5505
305,5515
400,5525
284,5535
405,5545
270,5556
407,5566
264,5577
405,5587
263,5598
401,5608
267,5618
394,5628
275,5640
388,5650
291,5660
372,5670
304,5681
349,5691
339,5702
334,5712
357,5723
325,5733
374,5743
314,5753
410,5764
371,5775
380,5785
255,5795
367,5806
289,5816
388,5826
287,5837
383,5848
289,5858
378,5868
294,5878
372,5889
303,5899
368,5910
314,5920
360,5931
330,5941
350,5951
344,5961
342,5972
358,5983
336,5993
370,6003
325,6013
377,6024
315,6035
380,6045
305,6055
383,6066
295,6076
384,6086
285,6096
381,6108
283,6118
378,6128
288,6138
372,6149
292,6159
367,6170
301,6180
358,6191
306,6201
344,6211
320,6221
335,6232
334,6243
327,6253
345,6263
313,6274
378,6284
376,6294
387,6305
267,6316
355,6326
295,6336
378,6346
288,6356
378,6368
281,6378
377,6388
284,6398
372,6409
289,6419
368,6429
297,6440
364,6451
308,6461
357,6471
319,6481
346,6492
334,6503
338,6513
348,6523
330,6534
357,6544
319,6554
366,6564
312,6576
375,6586
306,6596
377,6606
296,6617
379,6627
287,6638
379,6648
283,6659
374,6669
284,6679
371,6689
291,6701
364,6711
293,6721
353,6731
298,6742
343,6752
312,6762
334,6773
325,6784
322,6794
357,6804
376,6814
365,6824
273,6836
342,6846
307,6856
374,6866
301,6877
377,6887
292,6897
378,6908
283,6919
377,6929
283,6939
375,6949
289,6960
372,6971
297,6981
368,6991
303,7002
358,7012
311,7022
348,7033
326,7044
338,7054
336,7064
327,7074
345,7085
318,7095
357,7106
313,7116
370,7127
308,7137
377,7147
301,7157
379,7169
292,7179
379,7189
283,7199
379,7209
287,7220
375,7230
289,7241
365,7251
289,7262
357,7272
293,7282
347,7292
302,7304
329,7314
331,7324
386,7334
356,7345
285,7355
321,7366
315,7376
361,7387
312,7397
374,7407
308,7417
379,7428
299,7439
381,7449
290,7459
383,7470
287,7480
381,7490
290,7501
377,7512
295,7522
370,7532
301,7542
365,7553
310,7563
355,7574
318,7584
340,7595
328,7605
330,7615
339,7625
322,7636
353,7647
316,7657
368,7667
313,7677
378,7688
306,7699
380,7709
293,7719
378,7730
286,7740
380,7750
283,7760
374,7772
283,7782
368,7792
289,7802
363,7813
295,7823
354,7834
296,7844
355,7855
381,7865
362,7875
291,7885
307,7896
340,7907
323,7917
360,7927
318,7938
375,7948
314,7958
382,7969
306,7980
383,7990
296,8000
385,8010
289,8020
385,8032
291,8042
381,8052
295,8062
375,8073
300,8083
368,8093
303,8104
354,8115
307,8125
342,8135
321,8145
335,8156
337,8167
328,8177
349,8187
319,8198
361,8208
314,8218
375,8228
311,8240
381,8250
300,8260
380,8270
291,8281
382,8291
283,8302
375,8312
279,8323
367,8333
282,8343
361,8353
287,8365
352,8375
286,8385
355,8395
371,8406
364,8416
279,8426
304,8437
327,8448
319,8458
345,8468
312,8478
359,8488
309,8500
373,8510
305,8520
377,8530
295,8541
378,8551
286,8561
381,8572
287,8583
381,8593
290,8603
374,8613
293,8624
367,8635
296,8645
355,8655
300,8666
345,8676
314,8686
336,8697
329,8708
327,8718
339,8728
319,8738
355,8749
316,8759
371,8770
312,8780
379,8791
303,8801
377,8811
293,8821
382,8833
287,8843
380,8853
281,8863
370,8873
281,8884
364,8894
287,8905
358,8915
293,8926
346,8936
327,8946
409,8956
331,8968
295,8978
309,8988
324,8998
348,9009
320,9019
362,9030
315,9040
376,9051
311,9061
383,9071
304,9081
384,9092
295,9103
387,9113
291,9123
385,9134
293,9144
380,9154
296,9165
373,9176
301,9186
363,9196
302,9206
350,9217
312,9227
339,9238
328,9248
332,9259
337,9269
321,9279
351,9289
316,9300
365,9311
313,9321
378,9331
308,9341
380,9352
296,9363
379,9373
287,9383
379,9394
282,9404
370,9414
280,9424
363,9436
283,9446
357,9456
291,9466
349,9477
301,9487
385,9498
376,9508
309,9519
289,9529
315,9539
340,9549
319,9560
356,9571
315,9581
372,9591
311,9602
379,9612
303,9622
381,9633
295,9644
384,9654
289,9664
384,9674
290,9684
378,9696
291,9706
370,9716
297,9726
364,9737
303,9747
353,9757
307,9768
339,9779
321,9789
331,9799
335,9809
325,9820
351,9831
321,9841
366,9851
315,9862
376,9872
308,9882
376,9892
298,9904
381,9914
293,9924
385,9934
283,9945
372,9955
279,9966
364,9976
282,9987
359,9997
290,10007
337,10018
354,10031
375,10042
376,10053
241,10064
355,10076
290,10087
345,10099
339,10110
317,10122
379,10133
288,10144
373,10156
294,10168
350,10179
345,10190
327,10202
389,10213
297,10224
383,10236
301,10248
356,10259
347,10270
325,10281
384,10293
290,10305
375,10316
292,10328
349,10339
337,10350
321,10362
381,10374
292,10385
377,10396
293,10407
351,10419
336,10431
321,10442
383,10454
293,10465
377,10476
289,10487
347,10500
329,10511
318,10522
376,10533
288,10545
368,10556
291,10568
402,10579
348,10591
276,10602
352,10613
287,10625
372,10637
285,10648
347,10659
327,10671
318,10682
375,10694
291,10705
377,10717
291,10728
354,10739
333,10750
324,10763
381,10774
295,10785
380,10797
292,10808
353,10819
324,10831
315,10843
369,10854
287,10865
371,10876
282,10888
347,10900
321,10911
316,10923
370,10934
290,10945
374,10956
284,10969
349,10980
323,10991
321,11002
374,11014
293,11025
373,11037
282,11048
349,11060
320,11071
315,11082
365,11095
282,11106
399,11117
347,11128
329,11140
283,11151
314,11163
370,11174
292,11186
374,11197
283,11208
353,11219
323,11232
324,11243
377,11254
301,11266
383,11277
291,11288
361,11300
331,11312
331,11323
381,11334
304,11345
385,11357
289,11369
357,11380
322,11392
324,11403
373,11414
298,11426
379,11438
285,11449
356,11460
322,11471
325,11483
374,11495
300,11506
379,11517
285,11529
358,11540
324,11551
329,11564
374,11575
299,11586
379,11597
283,11609
353,11620
315,11632
319,11643
371,11655
352,11666
413,11677
241,11688
335,11701
312,11712
323,11723
369,11735
299,11746
380,11757
287,11769
359,11781
321,11792
328,11803
374,11814
306,11827
387,11838
293,11849
366,11860
325,11872
333,11883
378,11895
308,11907
385,11918
289,11929
361,11940
318,11952
327,11964
369,11975
302,11986
382,11998
288,12009
365,12020
323,12033
333,12044
373,12055
306,12066
386,12078
291,12089
365,12101
319,12112
330,12124
368,12135
303,12146
379,12158
283,12170
356,12181
328,12192
388,12204
375,12215
263,12227
364,12238
283,12250
359,12261
314,12272
330,12283
368,12296
306,12307
382,12318
286,12329
363,12341
318,12352
334,12364
372,12376
310,12387
385,12398
287,12409
364,12421
317,12433
332,12444
367,12455
304,12467
378,12478
279,12489
356,12502
306,12513
327,12524
362,12535
307,12547
381,12559
283,12570
358,12581
305,12593
327,12604
363,12615
307,12627
379,12639
279,12650
356,12661
302,12673
323,12684
354,12696
299,12707
372,12719
317,12730
400,12741
269,12752
300,12765
349,12776
302,12787
375,12798
278,12810
359,12821
306,12833
329,12845
359,12856
306,12867
381,12878
285,12891
366,12902
311,12913
334,12924
363,12936
309,12947
382,12959
284,12971
363,12982
305,12993
329,13004
355,13016
303,13028
374,13039
276,13050
359,13062
303,13073
331,13084
359,13096
308,13108
378,13119
281,13130
363,13142
305,13153
331,13165
355,13176
305,13188
374,13199
275,13210
356,13221
295,13234
321,13245
380,13256
357,13267
353,13279
243,13291
352,13302
297,13314
327,13325
352,13336
306,13347
378,13360
281,13371
364,13382
303,13393
334,13405
358,13416
313,13428
384,13440
287,13451
369,13462
308,13473
337,13485
359,13497
308,13508
376,13519
276,13531
361,13542
299,13553
331,13565
351,13577
305,13588
374,13599
277,13611
363,13623
302,13634
334,13645
354,13657
310,13668
379,13679
279,13691
361,13703
297,13714
332,13725
351,13736
307,13748
373,13760
268,13771
356,13783
348,13794
357,13805
306,13816
288,13829
372,13840
275,13851
357,13862
290,13874
327,13885
347,13897
309,13908
379,13920
281,13931
365,13942
298,13954
333,13966
351,13977
313,13988
382,14000
286,14011
370,14023
299,14034
331,14046
343,14057
304,14068
373,14080
278,14092
364,14103
297,14114
332,14126
345,14137
307,14148
375,14160
278,14172
365,14183
297,14194
333,14205
350,14217
311,14229
378,14240
278,14252
363,14263
295,14274
333,14285
345,14298
307,14309
370,14320
279,14331
417,14343
330,14355
297,14366
321,14377
307,14389
374,14400
278,14411
365,14424
299,14435
339,14446
352,14457
313,14469
380,14480
284,14492
372,14503
305,14515
345,14526
357,14537
318,14548
385,14561
287,14572
371,14583
300,14595
339,14606
349,14617
313,14629
379,14641
281,14652
366,14663
297,14674
338,14686
350,14698
315,14709
381,14721
283,14732
369,14743
298,14755
338,14767
352,14778
318,14789
384,14800
283,14812
367,14824
295,14835
337,14846
346,14858
313,14869
376,14880
285,14893
424,14904
327,14915
299,14926
321,14938
311,14949
379,14961
283,14972
369,14984
298,14995
340,15006
349,15017
318,15030
385,15041
289,15052
377,15064
305,15075
346,15087
354,15098
320,15110
387,15121
290,15132
375,15143
301,15156
341,15167
345,15178
313,15190
378,15201
281,15212
369,15224
296,15236
340,15247
345,15258
314,15269
379,15281
283,15293
371,15304
297,15315
341,15327
347,15338
316,15349
380,15362
280,15373
366,15384
292,15395
338,15407
341,15418
311,15430
372,15441
290,15453
425,15464
307,15475
301,15488
320,15499
311,15510
375,15521
279,15533
367,15544
293,15556
341,15567
345,15579
317,15590
383,15601
288,15612
375,15625
300,15636
346,15647
349,15659
319,15670
385,15681
288,15693
374,15705
295,15716
340,15727
340,15738
312,15750
376,15762
281,15773
367,15784
292,15796
339,15807
341,15819
314,15831
378,15842
281,15853
369,15864
292,15876
340,15888
343,15899
317,15910
380,15922
279,15933
365,15944
286,15956
336,15968
335,15979
311,15990
373,16002
277,16013
406,16025
341,16036
306,16048
303,16059
307,16070
374,16081
279,16094
367,16105
289,16116
341,16128
339,16139
316,16150
381,16162
286,16174
375,16185
298,16196
348,16207
346,16220
319,16231
385,16242
289,16253
377,16265
296,16276
343,16288
338,16300
313,16311
376,16322
281,16333
369,16345
290,16357
342,16368
339,16379
315,16391
378,16402
283,16413
371,16425
292,16437
343,16448
339,16459
317,16471
381,16482
285,16494
371,16505
288,16517
341,16528
335,16539
313,16551
376,16563
282,16574
366,16585
307,16596
407,16608
344,16620
278,16631
360,16643
281,16654
368,16665
288,16676
342,16689
338,16700
317,16711
381,16722
287,16734
375,16745
295,16757
350,16769
344,16780
322,16791
386,16802
291,16814
379,16826
297,16837
348,16848
338,16860
316,16871
378,16882
285,16894
373,16906
291,16917
346,16928
337,16940
316,16952
378,16963
285,16974
374,16986
292,16997
349,17008
340,17020
320,17032
381,17043
290,17054
379,17065
296,17077
348,17089
336,17100
315,17112
377,17123
285,17134
373,17145
290,17158
343,17169
364,17180
383,17191
368,17203
247,17214
359,17226
285,17238
343,17249
332,17260
315,17271
376,17284
285,17295
374,17306
291,17317
350,17329
340,17340
322,17352
384,17363
290,17375
378,17386
294,17397
352,17409
341,17421
320,17432
380,17443
284,17455
371,17466
287,17477
345,17489
332,17501
316,17512
378,17523
285,17534
373,17546
288,17558
347,17569
333,17581
317,17592
378,17603
287,17614
373,17627
286,17638
349,17649
336,17660
320,17672
379,17684
285,17695
370,17707
283,17718
339,17729
320,17740
310,17753
370,17764
316,17775
429,17786
274,17798
313,17809
313,17821
308,17832
366,17844
279,17855
370,17866
288,17878
349,17890
331,17901
316,17912
377,17924
290,17935
381,17946
297,17958
357,17970
341,17981
324,17992
386,18003
293,18016
379,18027
290,18038
350,18050
333,18061
318,18072
377,18084
286,18096
372,18107
285,18118
348,18129
332,18141
319,18153
378,18164
287,18176
374,18187
287,18198
351,18209
333,18222
320,18233
382,18244
289,18255
370,18267
278,18278
342,18290
324,18301
315,18313
376,18324
287,18335
369,18347
310,18359
414,18370
319,18381
281,18393
362,18404
288,18416
374,18427
284,18439
345,18450
326,18461
319,18472
382,18485
295,18496
383,18507
295,18519
357,18530
340,18541
327,18553
388,18565
298,18576
385,18587
297,18598
357,18610
335,18622
321,18633
380,18644
290,18656
378,18667
288,18678
352,18691
330,18702
320,18713
380,18724
292,18736
380,18748
290,18759
354,18770
333,18782
321,18793
379,18804
292,18817
380,18828
290,18839
352,18850
328,18862
317,18873
376,18885
289,18896
376,18908
285,18919
350,18930
374,18941
374,18954
345,18965
259,18976
367,18988
284,18999
350,19010
328,19022
319,19034
377,19045
290,19056
378,19067
290,19079
356,19091
336,19102
326,19113
385,19125
296,19136
382,19148
291,19160
358,19171
334,19182
322,19193
377,19205
289,19217
375,19228
283,19239
350,19251
326,19262
318,19273
375,19286
289,19297
375,19308
284,19319
351,19331
326,19342
319,19354
375,19365
288,19377
376,19388
285,19399
352,19410
325,19423
316,19434
371,19445
286,19457
372,19468
280,19480
346,19491
320,19503
359,19514
427,19525
251,19536
341,19549
271,19560
346,19571
320,19582
315,19594
371,19605
287,19617
373,19629
282,19640
352,19651
329,19662
324,19674
382,19686
296,19697
381,19708
287,19720
355,19731
330,19742
324,19755
379,19766
291,19777
374,19788
281,19800
350,19811
323,19823
319,19834
375,19846
291,19857
377,19868
284,19880
353,19892
324,19903
320,19914
375,19926
291,19937
378,19949
288,19960
355,19972
324,19983
315,19994
368,20005
284,20018
364,20029
273,20040
342,20051
311,20063
329,20074
428,20086
289,20098
330,20109
261,20120
345,20131
318,20143
314,20155
366,20166
286,20177
370,20189
279,20200
349,20212
325,20224
323,20235
379,20246
297,20257
380,20269
288,20281
355,20292
330,20303
325,20315
379,20326
293,20337
374,20349
280,20361
349,20372
321,20383
319,20395
374,20406
293,20418
377,20429
284,20441
352,20452
323,20463
321,20474
375,20487
295,20498
379,20509
289,20520
355,20532
323,20543
317,20555
370,20567
292,20578
376,20589
281,20600
348,20613
311,20624
329,20635
429,20646
301,20658
336,20669
265,20681
349,20692
317,20704
317,20715
369,20726
293,20738
377,20750
286,20761
356,20772
326,20784
325,20795
379,20806
301,20818
386,20830
295,20841
363,20852
333,20864
329,20875
377,20887
295,20898
376,20910
284,20921
355,20932
325,20944
323,20956
373,20967
295,20978
377,20989
286,21001
358,21013
327,21024
326,21036
377,21047
298,21058
382,21069
290,21082
360,21093
326,21104
323,21115
372,21127
294,21138
374,21150
280,21161
352,21173
316,21184
349,21195
428,21207
285,21219
341,21230
269,21241
351,21253
318,21264
322,21275
373,21287
298,21299
380,21310
285,21321
357,21332
324,21345
327,21356
381,21367
304,21379
387,21390
291,21401
361,21413
327,21425
328,21436
376,21447
297,21458
377,21470
280,21482
352,21493
315,21505
321,21516
370,21527
298,21538
380,21551
284,21562
355,21573
317,21584
322,21596
369,21607
297,21619
382,21630
287,21642
357,21653
314,21664
318,21677
363,21688
292,21699
373,21710
278,21722
350,21733
312,21745
366,21756
409,21768
254,21779
348,21790
274,21801
352,21814
313,21825
321,21836
366,21848
295,21859
376,21870
281,21882
357,21894
319,21905
328,21916
374,21927
303,21939
384,21951
286,21962
360,21974
320,21985
327,21996
369,22007
297,22020
376,22031
278,22042
354,22053
312,22065
322,22077
366,22088
298,22099
378,22111
280,22122
357,22133
313,22146
324,22157
366,22168
299,22179
383,22191
284,22202
358,22214
310,22225
321,22237
362,22248
296,22259
375,22270
277,22283
351,22294
317,22305
382,22317
388,22328
257,22339
358,22351
277,22363
355,22374
309,22385
324,22396
365,22409
301,22420
380,22431
283,22443
362,22454
318,22465
331,22477
373,22489
308,22500
386,22511
287,22522
365,22534
318,22546
331,22557
367,22568
302,22580
379,22591
280,22602
359,22615
311,22626
326,22637
365,22648
303,22660
380,22671
281,22683
360,22694
311,22706
328,22717
364,22728
306,22739
386,22752
285,22763
361,22774
308,22786
324,22797
360,22809
300,22820
377,22832
278,22843
353,22854
326,22865
393,22878
363,22889
263,22900
363,22912
277,22923
357,22934
305,22946
327,22958
363,22969
305,22980
383,22991
283,23003
365,23015
313,23026
334,23037
370,23049
311,23060
387,23071
286,23084
368,23095
315,23106
333,23117
363,23129
304,23141
379,23152
278,23163
360,23175
305,23186
327,23197
358,23209
304,23221
379,23232
279,23243
361,23255
304,23266
329,23278
360,23289
306,23301
383,23312
283,23323
364,23334
303,23347
326,23358
354,23369
302,23380
375,23392
275,23403
357,23415
298,23427
372,23438
410,23449
266,23460
349,23472
272,23484
360,23495
301,23506
328,23518
356,23529
307,23541
382,23553
282,23564
367,23575
308,23586
336,23598
365,23610
314,23621
388,23632
286,23644
370,23655
310,23666
337,23678
360,23690
308,23701
380,23712
278,23724
363,23735
301,23747
331,23758
354,23770
306,23781
379,23792
279,23803
365,23816
303,23827
333,23838
356,23849
307,23861
381,23873
282,23884
367,23896
302,23907
332,23918
352,23929
305,23942
377,23953
276,23964
362,23975
293,23987
358,23998
426,24010
299,24022
342,24033
266,24044
363,24055
298,24067
333,24079
353,24090
310,24101
382,24113
282,24124
369,24135
305,24147
340,24159
361,24170
317,24181
388,24193
286,24204
371,24216
304,24227
339,24239
355,24250
311,24261
380,24273
279,24285
366,24296
297,24307
333,24318
349,24330
309,24342
380,24353
280,24365
368,24376
299,24387
337,24398
350,24411
309,24422
381,24433
282,24444
370,24456
297,24467
334,24479
345,24491
307,24502
375,24513
274,24524
363,24536
288,24548
359,24559
417,24570
297,24582
340,24593
265,24605
362,24616
291,24628
334,24639
344,24650
310,24662
380,24674
280,24685
369,24696
296,24708
341,24719
351,24730
316,24742
385,24754
284,24765
372,24776
298,24787
341,24799
346,24811
310,24822
377,24834
275,24845
364,24856
288,24867
335,24880
339,24891
310,24902
378,24913
278,24925
367,24936
288,24948
335,24960
337,24971
308,24982
377,24993
281,25006
371,25017
290,25028
335,25039
332,25051
305,25062
371,25074
273,25085
364,25097
281,25108
346,25119
401,25131
325,25143
333,25154
257,25165
363,25177
284,25188
338,25199
334,25211
311,25223
377,25234
280,25245
372,25256
292,25268
346,25280
343,25291
319,25303
384,25314
286,25325
376,25337
294,25349
348,25360
341,25371
315,25382
377,25394
278,25406
367,25417
280,25428
340,25440
332,25451
313,25462
377,25475
279,25486
370,25497
283,25508
343,25520
332,25531
313,25543
378,25554
285,25566
376,25577
287,25588
344,25600
328,25612
310,25623
373,25634
279,25646
371,25657
280,25668
344,25680
379,25692
363,25703
344,25714
257,25725
367,25738
281,25749
345,25760
327,25772
313,25783
376,25794
287,25806
379,25818
289,25829
355,25840
338,25851
324,25863
386,25875
293,25886
382,25897
291,25909
356,25920
335,25931
319,25944
378,25955
286,25966
375,25977
283,25989
350,26000
326,26012
316,26023
376,26035
287,26046
376,26057
283,26070
351,26081
327,26092
319,26103
380,26115
290,26126
381,26138
289,26149
354,26161
326,26172
315,26183
372,26194
286,26207
375,26218
282,26229
352,26241
319,26252
339,26263
428,26275
292,26287
341,26298
267,26309
351,26320
321,26332
317,26344
373,26355
291,26366
380,26378
285,26389
359,26400
333,26413
330,26424
388,26435
303,26446
391,26458
295,26470
366,26481
336,26492
330,26504
380,26515
294,26526
379,26539
282,26550
356,26561
323,26572
322,26584
373,26595
291,26607
377,26618
280,26630
355,26641
320,26652
321,26663
373,26676
293,26687
379,26698
279,26710
354,26721
320,26732
324,26744
374,26756
291,26767
374,26778
275,26789
352,26802
314,26813
321,26824
369,26835
293,26847
422,26858
328,26870
321,26882
281,26893
318,26904
369,26915
294,26927
377,26939
276,26950
354,26961
313,26973
325,26984
375,26995
303,27008
388,27019
288,27030
366,27041
322,27053
331,27064
377,27076
304,27087
385,27099
278,27110
355,27121
310,27132
324,27145
366,27156
298,27167
379,27179
276,27190
357,27202
312,27213
326,27225
369,27236
300,27247
381,27258
278,27271
359,27282
312,27293
327,27304
371,27316
306,27327
386,27339
277,27351
355,27362
302,27373
321,27384
359,27396
298,27408
379,27419
275,27430
397,27442
370,27453
295,27464
324,27476
291,27488
375,27499
272,27510
356,27522
303,27534
326,27545
362,27556
302,27568
380,27579
278,27590
364,27602
310,27614
332,27625
366,27636
304,27648
382,27659
278,27671
362,27682
301,27694
323,27705
353,27716
297,27727
373,27740
269,27751
355,27762
296,27773
324,27785
354,27796
299,27808
375,27820
271,27831
357,27842
296,27853
325,27865
353,27877
301,27888
379,27899
274,27911
359,27922
293,27934
323,27945
350,27957
299,27968
373,27979
270,27991
355,28003
310,28014
388,28025
362,28037
258,28048
355,28059
270,28071
358,28083
295,28094
328,28105
353,28116
305,28128
379,28140
277,28151
366,28163
305,28174
339,28185
366,28196
316,28209
389,28220
281,28231
369,28242
303,28254
335,28266
355,28277
307,28289
380,28300
275,28311
365,28322
296,28335
332,28346
350,28357
307,28368
380,28380
277,28391
367,28403
297,28414
334,28426
352,28437
307,28448
381,28460
281,28472
371,28483
299,28494
334,28506
348,28517
306,28528
377,28540
274,28552
365,28563
291,28574
344,28585
413,28597
324,28609
335,28620
256,28632
364,28643
292,28654
334,28666
346,28678
309,28689
382,28700
280,28711
373,28723
301,28735
344,28746
356,28758
316,28769
389,28780
285,28791
378,28804
304,28815
345,28826
351,28837
311,28849
379,28860
275,28872
367,28883
291,28895
337,28906
343,28917
308,28929
378,28941
275,28952
368,28963
291,28975
339,28986
344,28998
312,29009
380,29021
279,29032
373,29043
293,29054
338,29067
339,29078
307,29089
375,29101
274,29112
366,29123
286,29135
334,29147
367,29158
373,29169
364,29180
236,29192
356,29204
285,29215
338,29227
339,29238
313,29249
381,29260
280,29273
372,29284
291,29295
345,29306
345,29318
319,29329
389,29341
287,29352
380,29364
296,29375
349,29386
345,29399
317,29410
382,29421
280,29432
372,29444
288,29455
344,29467
337,29478
314,29490
380,29501
281,29512
374,29523
288,29536
345,29547
337,29558
316,29570
381,29581
285,29592
379,29604
291,29616
347,29627
333,29638
313,29649
377,29661
281,29673
372,29684
284,29696
341,29707
352,29718
376,29730
375,29742
241,29753
360,29764
284,29775
346,29787
333,29799
316,29810
381,29821
286,29833
378,29844
289,29855
354,29868
341,29879
326,29890
393,29901
296,29913
384,29924
292,29936
355,29947
338,29959
321,29970
384,29981
290,29992
381,30005
287,30016
351,30027
330,30039
316,30050
379,30061
288,30073
380,30085
288,30096
354,30107
333,30118
321,30131
381,30142
291,30153
384,30164
291,30176
354,30187
329,30199
317,30211
377,30222
285,30233
375,30244
280,30256
347,30268
363,30279
377,30290
352,30302
256,30313
369,30324
283,30337
352,30348
327,30359
319,30370
379,30382
292,30393
382,30405
287,30416
359,30428
334,30439
328,30450
388,30462
300,30474
388,30485
290,30496
361,30508
331,30519
323,30531
379,30542
292,30554
379,30565
281,30576
353,30587
322,30600
319,30611
376,30622
293,30633
381,30645
283,30656
356,30668
324,30680
321,30691
376,30702
296,30713
384,30725
283,30737
354,30748
318,30759
319,30771
371,30782
290,30793
376,30806
273,30817
369,30828
385,30839
317,30851
328,30863
279,30874
376,30885
276,30897
353,30908
315,30919
322,30931
373,30943
297,30954
384,30965
283,30977
361,30988
323,31000
328,31011
379,31023
300,31034
385,31045
284,31056
361,31069
318,31080
323,31091
369,31102
293,31114
377,31125
274,31137
353,31149
310,31160
322,31171
368,31182
297,31195
380,31206
276,31217
356,31228
309,31240
322,31251
370,31263
299,31275
381,31286
273,31297
353,31308
304,31320
319,31332
360,31343
293,31354
373,31366
279,31377
407,31388
324,31400
280,31412
337,31423
293,31434
376,31446
272,31457
356,31469
305,31480
323,31492
363,31503
300,31514
383,31525
280,31538
364,31549
313,31560
330,31571
369,31583
303,31595
385,31606
280,31618
362,31629
307,31640
324,31651
359,31664
297,31675
377,31686
272,31697
357,31709
301,31720
325,31732
359,31744
300,31755
380,31766
274,31777
359,31789
301,31801
328,31812
363,31823
303,31835
379,31846
271,31857
357,31869
296,31881
323,31892
353,31903
297,31915
375,31927
317,31938
401,31949
259,31961
303,31972
349,31983
299,31995
376,32007
271,32018
360,32029
299,32040
329,32052
359,32064
306,32075
385,32087
280,32098
368,32109
307,32120
336,32133
365,32144
311,32155
388,32166
281,32178
365,32189
297,32201
328,32212
355,32224
305,32235
381,32246
275,32258
363,32270
296,32281
329,32292
353,32304
305,32315
381,32327
276,32338
366,32350
297,32361
334,32372
359,32384
308,32396
381,32407
272,32418
362,32430
293,32441
329,32452
349,32464
303,32476
375,32487
309,32498
420,32509
270,32521
303,32533
341,32544
305,32556
379,32567
273,32578
365,32589
296,32602
335,32613
354,32624
311,32635
387,32647
282,32659
375,32670
305,32681
342,32693
359,32704
315,32715
389,32728
282,32739
372,32750
298,32761
336,32773
351,32784
308,32796
380,32807
275,32819
367,32830
293,32841
335,32852
349,32865
310,32876
382,32887
276,32899
369,32910
295,32921
336,32933
351,32945
313,32956
384,32967
274,32978
365,32990
288,33002
334,33013
344,33025
308,33036
380,33047
271,33059
396,33071
359,33082
316,33093
304,33104
301,33116
379,33128
276,33139
370,33150
293,33162
340,33173
348,33184
314,33197
388,33208
284,33219
380,33230
303,33242
350,33253
356,33265
320,33276
391,33288
286,33299
380,33310
298,33321
344,33334
346,33345
313,33356
384,33368
279,33379
373,33391
291,33402
342,33414
344,33425
314,33436
385,33447
281,33460
374,33471
292,33482
344,33494
343,33505
315,33516
387,33528
284,33540
376,33551
289,33562
340,33573
338,33585
311,33597
380,33608
279,33619
369,33631
301,33642
401,33653
350,33666
270,33677
360,33688
276,33699
371,33711
286,33722
342,33734
337,33745
313,33757
383,33768
283,33779
377,33792
293,33803
350,33814
344,33825
318,33837
386,33848
284,33860
378,33871
291,33883
347,33894
336,33905
312,33916
376,33929
276,33940
369,33951
281,33963
342,33974
331,33985
311,33997
377,34009
278,34020
372,34031
282,34042
344,34054
332,34066
312,34077
380,34088
281,34100
373,34111
279,34123
341,34135
326,34146
309,34157
374,34168
277,34180
369,34192
278,34203
384,34214
375,34226
275,34237
345,34248
273,34260
369,34272
277,34283
344,34294
327,34306
313,34317
378,34329
282,34340
376,34352
284,34363
352,34374
335,34385
321,34398
385,34409
288,34420
379,34432
285,34443
351,34454
329,34466
314,34478
376,34489
282,34500
373,34511
277,34524
345,34535
322,34546
313,34557
375,34569
283,34580
375,34592
279,34604
348,34615
325,34626
314,34637
378,34649
288,34661
379,34672
280,34683
347,34695
321,34706
313,34717
373,34729
283,34741
374,34752
274,34763
363,34775
388,34786
319,34798
332,34809
272,34821
374,34832
277,34843
350,34855
323,34867
318,34878
378,34889
290,34900
381,34912
284,34924
357,34935
331,34947
326,34958
386,34969
297,34980
386,34993
287,35004
358,35015
327,35026
321,35038
377,35049
289,35061
378,35073
279,35084
352,35095
321,35106
319,35118
376,35130
290,35141
380,35152
280,35164
354,35175
322,35186
320,35198
376,35210
294,35221
383,35232
281,35244
353,35256
316,35267
317,35278
371,35290
288,35301
377,35312
275,35324
355,35336
368,35347
357,35358
334,35369
265,35381
373,35393
275,35404
353,35416
317,35427
321,35438
375,35449
295,35462
383,35473
282,35484
360,35495
324,35507
328,35518
383,35530
301,35542
388,35553
285,35564
363,35575
322,35588
323,35599
373,35610
292,35621
380,35633
277,35644
356,35656
313,35667
320,35679
370,35690
294,35701
382,35713
279,35725
358,35736
315,35747
322,35759
369,35770
296,35781
385,35793
280,35805
357,35816
310,35827
320,35838
365,35850
290,35862
376,35873
272,35885
351,35896
337,35907
381,35918
353,35931
258,35942
364,35953
270,35964
352,35976
305,35988
320,35999
365,36011
295,36022
380,36033
275,36044
360,36057
313,36068
328,36079
373,36090
302,36102
387,36113
281,36125
363,36136
313,36148
323,36159
362,36170
292,36182
376,36194
270,36205
355,36216
304,36228
321,36239
361,36250
294,36262
378,36274
272,36285
357,36296
305,36307
323,36320
362,36331
297,36342
383,36354
277,36365
360,36376
304,36388
322,36400
360,36411
295,36422
377,36433
271,36445
355,36457
306,36468
376,36480
397,36491
256,36502
355,36513
270,36526
358,36537
303,36548
326,36559
364,36571
303,36582
385,36594
279,36605
366,36617
311,36628
333,36639
371,36651
309,36663
390,36674
283,36685
369,36697
312,36708
333,36720
366,36731
303,36743
382,36754
274,36765
363,36776
304,36789
328,36800
362,36811
303,36823
383,36834
276,36845
364,36857
303,36869
330,36880
363,36891
304,36902
386,36914
281,36926
368,36937
304,36948
328,36960
358,36971
303,36982
381,36995
274,37006
362,37017
296,37028
346,37040
426,37052
303,37063
341,37074
260,37086
362,37097
300,37108
329,37121
360,37132
306,37143
386,37154
279,37166
369,37177
307,37189
336,37200
368,37212
313,37223
393,37234
285,37245
374,37258
311,37269
338,37280
364,37292
307,37303
383,37314
275,37326
365,37338
301,37349
332,37360
359,37371
307,37383
384,37395
276,37406
367,37417
301,37429
333,37440
359,37452
307,37464
386,37475
280,37486
369,37497
300,37509
330,37521
354,37532
304,37543
381,37555
274,37566
363,37577
293,37590
355,37601
424,37612
292,37623
343,37635
265,37646
363,37658
297,37669
331,37681
356,37692
308,37703
384,37714
279,37727
369,37738
303,37749
337,37761
364,37772
316,37784
393,37795
285,37807
373,37818
305,37829
336,37840
357,37853
308,37864
381,37875
275,37886
365,37898
295,37909
330,37921
351,37933
306,37944
383,37955
278,37966
370,37978
300,37990
335,38001
353,38012
310,38024
387,38035
281,38046
369,38059
296,38070
332,38081
351,38092
305,38104
379,38115
274,38127
363,38138
319,38150
392,38161
346,38172
273,38184
366,38196
272,38207
365,38218
295,38230
334,38241
352,38253
308,38264
382,38276
276,38287
369,38298
300,38309
340,38322
359,38333
315,38344
389,38355
281,38367
372,38378
299,38390
336,38402
350,38413
306,38424
379,38435
272,38447
363,38459
289,38470
331,38481
345,38493
307,38504
381,38516
275,38528
367,38539
292,38550
332,38561
347,38573
310,38585
384,38596
274,38607
365,38619
287,38630
331,38641
341,38653
304,38665
377,38676
267,38687
384,38699
353,38710
323,38722
299,38733
295,38745
376,38756
270,38767
366,38778
289,38791
335,38802
345,38813
309,38824
383,38836
277,38847
372,38859
296,38871
342,38882
352,38893
315,38904
388,38917
280,38928
372,38939
291,38950
335,38962
340,38973
306,38985
378,38996
272,39008
366,39019
285,39030
334,39042
339,39054
307,39065
379,39076
273,39088
367,39099
286,39110
337,39122
345,39134
311,39145
379,39156
269,39168
363,39179
281,39191
331,39202
334,39214
303,39225
368,39236
290,39248
423,39260
273,39271
300,39282
322,39293
306,39305
377,39317
272,39328
365,39340
282,39351
334,39362
335,39373
307,39386
379,39397
276,39408
373,39419
291,39431
342,39442
343,39454
312,39465
383,39477
277,39488
370,39499
284,39511
336,39523
336,39534
306,39545
376,39557
271,39568
368,39579
284,39591
338,39603
337,39614
309,39625
380,39636
274,39649
370,39660
285,39671
344,39683
342,39694
312,39705
379,39717
272,39729
368,39740
281,39751
338,39762
335,39774
306,39786
381,39797
328,39809
406,39820
243,39831
320,39842
331,39855
309,39866
380,39877
277,39888
374,39900
287,39911
344,39923
339,39934
314,39946
386,39957
284,39968
381,39981
294,39992
351,40003
346,40014
318,40026
388,40037
282,40049
375,40060
285,40072
343,40083
335,40094
313,40105
383,40118
281,40129
375,40140
285,40152
344,40163
335,40174
313,40186
382,40198
281,40209
376,40220
286,40231
349,40243
339,40255
315,40266
380,40278
277,40289
373,40300
282,40311
345,40324
333,40335
310,40346
381,40357
332,40369
411,40381
243,40392
327,40403
329,40415
313,40426
381,40437
282,40450
378,40461
286,40472
350,40483
338,40495
320,40506
389,40518
290,40529
387,40541
295,40552
358,40563
343,40574
321,40587
389,40598
288,40609
382,40621
287,40632
351,40643
334,40655
317,40667
383,40678
283,40689
378,40700
284,40713
351,40724
334,40735
318,40747
384,40758
287,40769
380,40781
284,40793
352,40804
336,40815
321,40826
384,40838
284,40850
377,40861
282,40872
350,40884
329,40895
315,40906
377,40919
290,40930
428,40941
311,40952
313,40964
303,40975
314,40987
379,40998
285,41010
379,41021
283,41032
353,41043
330,41056
321,41067
385,41078
293,41090
386,41101
291,41113
360,41124
336,41136
323,41147
386,41158
293,41169
385,41182
285,41193
353,41204
326,41216
317,41227
377,41238
287,41250
379,41262
283,41273
354,41284
327,41295
319,41307
380,41319
289,41330
380,41341
281,41353
353,41364
328,41375
321,41388
380,41399
286,41410
375,41421
277,41433
349,41445
320,41456
316,41467
374,41479
290,41490
424,41501
313,41513
316,41525
294,41536
314,41547
374,41559
288,41570
377,41582
279,41593
352,41605
323,41616
321,41627
380,41638
295,41651
384,41662
283,41673
357,41684
324,41696
322,41707
379,41719
295,41731
382,41742
278,41753
351,41764
315,41776
317,41788
372,41799
291,41810
379,41822
277,41833
353,41845
315,41857
319,41868
372,41879
293,41890
380,41902
281,41914
359,41925
321,41936
320,41948
368,41959
287,41970
375,41982
273,41994
351,42005
312,42016
313,42028
381,42039
344,42051
372,42062
227,42074
338,42085
309,42096
318,42107
369,42120
292,42131
379,42142
276,42153
355,42165
315,42177
324,42188
375,42200
301,42211
390,42222
285,42233
364,42246
321,42257
331,42268
381,42279
303,42291
386,42302
279,42314
359,42326
313,42337
326,42348
373,42359
300,42371
386,42383
281,42394
362,42405
316,42417
329,42428
374,42439
303,42451
391,42463
284,42474
364,42485
310,42497
323,42508
367,42520
298,42531
383,42543
277,42554
357,42565
315,42577
379,42589
387,42600
256,42611
362,42622
275,42634
359,42646
308,42657
325,42669
367,42680
301,42691
385,42702
279,42715
365,42726
313,42737
331,42748
371,42760
305,42771
387,42783
280,42795
367,42806
313,42817
330,42828
365,42840
298,42852
379,42863
271,42874
359,42886
303,42897
325,42909
361,42920
299,42932
381,42943
273,42954
360,42966
301,42978
324,42989
363,43000
305,43012
385,43023
273,43034
358,43046
296,43058
322,43069
354,43080
297,43091
377,43103
263,43115
384,43126
371,43138
305,43149
315,43160
292,43171
378,43184
269,43195
359,43206
297,43217
326,43229
359,43240
305,43252
385,43264
278,43275
368,43286
304,43297
333,43310
363,43321
308,43332
387,43343
280,43355
370,43366
303,43378
330,43389
356,43401
302,43412
380,43423
272,43435
362,43447
295,43458
328,43469
355,43481
304,43492
382,43503
274,43515
364,43527
297,43538
334,43549
360,43560
307,43572
380,43584
269,43595
361,43607
292,43618
328,43629
351,43641
299,43653
382,43664
328,43675
390,43686
248,43698
311,43710
347,43721
303,43732
381,43744
273,43755
367,43766
297,43779
334,43790
355,43801
310,43812
387,43824
280,43835
374,43847
303,43858
340,43870
359,43881
312,43892
389,43904
279,43916
370,43927
295,43938
335,43950
351,43961
307,43972
383,43984
274,43996
368,44007
295,44018
335,44029
352,44042
310,44053
385,44064
275,44076
371,44087
299,44098
339,44110
349,44122
306,44133
380,44144
272,44155
367,44167
289,44179
333,44190
339,44201
336,44213
427,44224
255,44235
335,44248
278,44259
333,44270
343,44281
308,44293
383,44304
277,44316
372,44327
294,44339
340,44350
350,44361
314,44374
390,44385
283,44396
378,44407
297,44419
343,44430
351,44442
314,44453
387,44465
277,44476
372,44487
289,44498
338,44511
343,44522
309,44533
383,44545
277,44556
373,44567
293,44579
342,44591
345,44602
312,44613
387,44624
282,44636
375,44648
289,44659
339,44670
340,44682
309,44693
381,44704
276,44717
367,44728
291,44739
393,44750
364,44762
268,44774
360,44785
275,44796
371,44808
286,44819
341,44830
339,44843
312,44854
384,44865
281,44876
377,44888
293,44899
348,44911
345,44922
317,44934
388,44945
283,44956
380,44967
293,44980
347,44991
339,45002
312,45014
380,45025
277,45036
373,45048
284,45060
343,45071
335,45082
312,45093
382,45106
281,45117
376,45128
284,45139
349,45151
339,45162
315,45174
380,45186
277,45197
372,45208
281,45219
345,45231
331,45243
309,45254
373,45265
315,45277
417,45288
246,45299
321,45312
324,45323
313,45334
378,45345
279,45357
374,45368
281,45380
349,45391
333,45403
318,45414
386,45425
288,45436
382,45449
286,45460
353,45471
335,45483
320,45494
387,45506
287,45517
378,45529
279,45540
347,45551
326,45562
314,45575
379,45586
283,45597
376,45608
279,45620
350,45631
327,45643
317,45655
380,45666
285,45677
380,45688
282,45700
351,45712
323,45723
314,45734
376,45746
284,45757
375,45768
275,45780
343,45792
325,45803
369,45814
394,45826
243,45838
359,45849
275,45860
349,45872
320,45883
316,45894
377,45906
289,45918
381,45929
281,45940
356,45952
327,45963
323,45975
383,45986
295,45998
385,46009
284,46020
359,46031
327,46044
322,46055
379,46066
290,46077
380,46089
277,46100
353,46112
319,46124
319,46135
375,46146
291,46157
381,46169
279,46181
357,46192
319,46203
322,46215
379,46226
295,46238
383,46249
275,46261
354,46272
315,46283
319,46295
371,46307
290,46318
373,46329
288,46341
416,46352
317,46363
286,46375
356,46387
292,46398
379,46409
274,46420
355,46432
314,46444
324,46455
375,46467
299,46478
387,46489
281,46500
363,46513
319,46524
329,46535
378,46546
302,46558
390,46570
282,46581
363,46593
314,46604
324,46615
370,46626
298,46639
383,46650
274,46661
358,46672
309,46684
325,46695
371,46707
300,46718
385,46730
276,46741
359,46752
307,46764
328,46776
372,46787
302,46798
384,46810
273,46821
358,46832
303,46844
323,46856
363,46867
294,46878
386,46889
334,46901
387,46913
261,46924
309,46936
360,46947
300,46958
382,46970
273,46982
362,46993
306,47004
329,47015
368,47027
306,47039
389,47050
280,47062
369,47073
311,47084
334,47095
370,47108
310,47119
392,47130
279,47141
365,47153
301,47164
327,47176
359,47187
303,47199
384,47210
274,47221
364,47233
301,47245
330,47256
360,47267
304,47279
383,47290
273,47302
364,47313
299,47325
331,47336
363,47347
307,47358
384,47371
270,47382
361,47393
293,47405
327,47416
353,47427
303,47439
377,47451
299,47462
425,47473
284,47484
297,47496
338,47508
303,47519
381,47531
272,47542
364,47553
295,47564
332,47577
355,47588
308,47599
388,47610
279,47622
373,47633
302,47645
338,47656
358,47668
311,47679
389,47690
279,47703
370,47714
295,47725
332,47736
348,47748
305,47759
381,47771
272,47782
367,47794
292,47805
333,47816
349,47827
307,47840
383,47851
273,47862
368,47874
291,47885
334,47896
347,47908
306,47920
383,47931
277,47942
372,47953
291,47965
332,47977
341,47988
305,48000
380,48011
272,48022
368,48034
283,48046
364,48057
417,48068
290,48079
344,48091
263,48103
368,48114
286,48125
337,48137
342,48148
309,48159
383,48172
276,48183
374,48194
293,48205
344,48217
350,48228
316,48240
391,48251
281,48263
377,48274
293,48285
345,48296
344,48309
311,48320
384,48331
276,48343
372,48354
285,48365
340,48377
336,48389
308,48400
381,48411
276,48422
374,48435
285,48446
342,48457
336,48468
310,48480
381,48491
277,48503
374,48515
283,48526
342,48537
338,48548
314,48560
383,48572
276,48583
372,48594
281,48606
342,48617
331,48628
310,48641
376,48652
294,48663
428,48674
296,48686
311,48697
310,48709
310,48720
378,48732
278,48743
375,48754
282,48766
348,48778
333,48789
316,48800
386,48812
287,48823
384,48835
289,48846
355,48858
338,48869
320,48880
388,48891
288,48904
382,48915
283,48926
350,48937
328,48949
315,48960
380,48972
283,48984
377,48995
278,49006
349,49017
327,49029
317,49041
382,49052
286,49063
379,49075
278,49086
351,49097
324,49110
316,49121
379,49132
287,49143
379,49155
280,49167
356,49178
326,49189
317,49201
377,49212
286,49223
380,49235
278,49247
352,49258
319,49269
314,49281
416,49292
351,49304
359,49315
245,49327
347,49338
319,49349
318,49360
376,49373
290,49384
383,49395
280,49406
359,49418
324,49429
325,49441
385,49453
299,49464
392,49475
287,49486
363,49499
326,49510
327,49521
383,49532
297,49544
386,49555
278,49567
357,49579
315,49590
321,49601
373,49612
294,49624
384,49636
278,49647
358,49658
315,49670
323,49681
374,49692
296,49704
386,49716
277,49727
359,49738
312,49750
323,49761
370,49773
298,49784
389,49796
281,49807
361,49818
310,49829
322,49842
369,49853
297,49864
385,49875
275,49887
359,49899
354,49910
393,49922
347,49933
271,49944
376,49955
275,49968
360,49979
308,49990
325,50001
368,50013
302,50024
388,50036
280,50048
368,50059
315,50070
333,50081
375,50093
308,50105
393,50116
281,50127
368,50139
311,50150
329,50161
366,50173
302,50185
384,50196
274,50207
362,50219
301,50231
325,50242
360,50253
301,50265
384,50276
275,50287
365,50299
302,50311
328,50322
360,50333
302,50344
383,50356
272,50368
362,50379
301,50391
331,50402
362,50413
302,50424
381,50437
269,50448
361,50459
295,50470
327,50482
353,50493
305,50505
429,50516
313,50528
331,50539
266,50550
323,50562
351,50574
301,50585
381,50596
271,50608
366,50619
296,50631
332,50642
357,50654
307,50665
388,50676
278,50688
373,50700
302,50711
337,50722
358,50734
308,50745
386,50756
273,50768
365,50780
291,50791
329,50802
347,50813
301,50825
378,50837
268,50848
364,50860
291,50871
332,50882
349,50893
304,50906
380,50917
269,50928
366,50939
289,50951
333,50963
345,50974
307,50985
385,50997
273,51008
368,51019
287,51032
331,51043
341,51054
304,51065
381,51077
270,51088
365,51100
326,51111
402,51123
325,51134
275,51145
368,51156
270,51169
368,51180
288,51191
336,51203
343,51214
304,51225
380,51237
273,51249
373,51260
292,51271
343,51282
349,51294
314,51306
389,51317
279,51329
378,51340
292,51351
341,51363
338,51375
305,51386
376,51397
264,51408
364,51420
276,51432
335,51443
331,51454
303,51466
379,51477
274,51488
375,51501
285,51512
343,51523
338,51534
309,51546
381,51557
272,51569
373,51580
285,51592
345,51603
339,51614
310,51625
381,51638
274,51649
374,51660
280,51672
343,51683
331,51695
325,51706
428,51718
300,51729
340,51740
258,51751
339,51764
327,51775
309,51786
380,51798
276,51809
376,51820
282,51832
348,51844
335,51855
317,51866
390,51877
288,51889
388,51901
291,51912
356,51923
338,51935
318,51946
385,51957
280,51970
377,51981
278,51992
348,52003
329,52015
313,52026
382,52038
280,52049
378,52061
279,52072
350,52083
329,52096
315,52107
381,52118
282,52129
379,52141
279,52152
351,52164
327,52175
315,52187
385,52198
286,52209
383,52220
277,52233
350,52244
323,52255
315,52267
380,52278
284,52289
378,52301
290,52313
416,52324
352,52335
278,52346
356,52358
282,52370
379,52381
277,52392
354,52404
326,52415
320,52427
383,52439
290,52450
387,52461
284,52472
361,52484
333,52496
327,52507
391,52518
296,52530
391,52541
286,52552
361,52564
326,52576
320,52587
379,52598
289,52610
384,52621
279,52633
358,52644
321,52656
320,52667
378,52678
290,52689
384,52702
278,52713
358,52724
320,52736
321,52747
377,52758
290,52770
383,52782
275,52793
359,52804
322,52815
324,52828
377,52839
289,52850
381,52861
274,52873
356,52884
315,52896
319,52908
370,52919
326,52930
428,52941
260,52953
329,52965
302,52976
321,52987
372,52999
291,53010
382,53021
274,53033
359,53045
317,53056
328,53067
382,53079
302,53090
394,53102
283,53113
366,53125
320,53136
330,53147
382,53159
300,53171
388,53182
274,53193
358,53204
308,53216
323,53228
371,53239
295,53251
382,53262
270,53273
357,53284
305,53297
323,53308
372,53319
299,53330
388,53342
277,53353
364,53365
310,53377
327,53388
372,53399
301,53410
388,53422
270,53434
358,53445
302,53456
323,53468
365,53479
298,53490
382,53502
283,53514
422,53525
330,53536
289,53548
341,53560
296,53571
382,53582
269,53594
360,53605
299,53616
325,53628
366,53640
303,53651
390,53662
279,53673
370,53685
310,53697
333,53708
370,53720
306,53731
392,53742
278,53753
368,53766
301,53777
325,53788
358,53799
299,53811
383,53822
270,53834
363,53846
297,53857
327,53868
359,53879
300,53892
384,53903
271,53914
365,53925
299,53937
330,53948
359,53960
302,53971
386,53983
272,53994
366,54005
295,54017
326,54029
355,54040
300,54051
382,54063
269,54074
362,54085
297,54097
382,54109
400,54120
264,54131
357,54142
265,54154
363,54166
291,54177
327,54189
352,54200
303,54211
385,54222
274,54235
372,54246
300,54257
337,54268
362,54280
309,54292
391,54303
276,54315
373,54326
300,54337
336,54348
355,54361
303,54372
383,54383
269,54394
368,54406
293,54417
333,54429
352,54440
304,54452
383,54463
270,54474
370,54486
293,54498
335,54509
352,54520
305,54532
383,54543
272,54554
373,54566
295,54578
336,54589
349,54600
304,54611
382,54624
267,54635
367,54646
287,54658
329,54669
363,54680
373,54692
397,54704
230,54715
353,54726
285,54737
333,54749
345,54761
306,54772
384,54784
271,54795
371,54806
290,54817
339,54830
352,54841
313,54852
392,54863
277,54875
377,54886
293,54898
342,54909
351,54921
311,54932
386,54943
272,54955
371,54967
286,54978
337,54989
343,55001
307,55012
384,55024
271,55035
372,55047
285,55058
338,55069
342,55080
307,55093
385,55104
273,55115
374,55127
288,55138
343,55149
344,55161
308,55173
382,55184
270,55195
372,55206
283,55218
339,55230
338,55241
303,55252
413,55264
344,55275
364,55286
246,55299
331,55310
336,55321
306,55332
382,55344
272,55356
375,55367
285,55378
345,55390
343,55401
314,55412
389,55425
280,55436
383,55447
293,55458
350,55470
347,55481
316,55493
389,55504
277,55516
376,55527
282,55538
342,55549
335,55562
309,55573
382,55584
273,55596
374,55607
281,55618
344,55630
335,55642
310,55653
382,55664
274,55675
375,55687
280,55699
346,55710
338,55721
313,55733
383,55744
273,55756
372,55768
276,55779
341,55790
329,55801
307,55813
376,55825
311,55836
427,55847
259,55859
316,55870
318,55881
309,55894
379,55905
274,55916
375,55927
279,55939
346,55950
332,55962
314,55973
386,55985
283,55996
384,56007
287,56018
354,56031
338,56042
317,56053
389,56065
283,56076
381,56088
279,56099
347,56111
327,56122
311,56133
380,56144
278,56157
377,56168
278,56179
349,56190
330,56202
315,56213
384,56225
282,56237
381,56248
280,56259
354,56270
333,56282
317,56294
382,56305
279,56316
378,56328
277,56339
350,56350
327,56363
311,56374
383,56385
335,56396
413,56408
238,56419
333,56431
323,56442
315,56454
381,56465
282,56476
381,56488
279,56500
355,56511
332,56522
321,56534
390,56545
291,56557
390,56568
287,56580
361,56591
335,56602
325,56613
391,56626
290,56637
385,56648
278,56659
354,56671
325,56682
318,56694
383,56706
285,56717
381,56728
276,56739
354,56751
325,56763
320,56774
384,56785
287,56797
386,56808
282,56820
358,56832
326,56843
317,56854
379,56865
285,56877
382,56889
274,56900
353,56911
315,56923
327,56934
428,56945
297,56957
345,56969
258,56980
353,56991
320,57003
316,57014
378,57026
286,57037
383,57049
277,57060
358,57071
325,57082
323,57095
386,57106
295,57117
391,57128
282,57140
362,57151
326,57163
325,57175
384,57186
290,57197
383,57208
273,57221
354,57232
316,57243
318,57254
377,57266
287,57277
383,57289
275,57300
357,57312
319,57323
320,57334
377,57346
291,57358
387,57369
276,57380
356,57392
313,57403
317,57414
374,57426
287,57438
381,57449
269,57460
347,57472
345,57483
381,57495
355,57506
259,57518
374,57529
271,57540
355,57552
312,57564
318,57575
374,57586
291,57597
386,57609
276,57621
361,57632
319,57644
326,57655
382,57666
297,57677
391,57690
279,57701
364,57712
318,57723
323,57735
373,57746
289,57758
383,57769
271,57781
357,57792
311,57803
320,57815
372,57827
291,57838
385,57849
273,57861
359,57872
312,57883
320,57895
374,57907
296,57918
389,57929
274,57940
358,57953
308,57964
320,57975
369,57987
290,57998
382,58009
261,58021
382,58033
385,58044
311,58055
335,58066
286,58078
383,58090
270,58101
358,58113
307,58124
322,58135
372,58146
296,58159
390,58170
278,58181
367,58192
316,58204
331,58215
380,58227
303,58238
395,58250
282,58261
368,58272
315,58285
325,58296
371,58307
295,58318
386,58330
273,58341
363,58353
309,58364
325,58376
371,58387
296,58398
388,58409
274,58422
364,58433
311,58444
326,58456
371,58467
301,58478
392,58490
275,58502
362,58513
306,58524
324,58535
368,58547
295,58559
385,58570
267,58582
367,58593
374,58604
361,58615
330,58628
279,58639
381,58650
271,58661
361,58673
305,58685
325,58696
370,58707
300,58719
390,58730
276,58741
368,58754
313,58765
333,58776
377,58787
306,58799
395,58810
279,58822
370,58833
311,58845
327,58856
367,58867
297,58878
385,58891
270,58902
362,58913
302,58925
324,58936
365,58947
298,58959
386,58971
272,58982
363,58993
304,59004
326,59017
365,59028
299,59039
389,59051
274,59062
363,59073
299,59085
323,59097
361,59108
295,59119
382,59130
267,59142
356,59154
330,59165
392,59176
353,59188
265,59199
371,59210
267,59223
360,59234
298,59245
325,59256
363,59268
300,59279
387,59291
272,59302
367,59314
306,59325
332,59336
372,59347
306,59360
393,59371
276,59382
370,59394
305,59405
329,59417
363,59428
299,59440
383,59451
267,59462
362,59473
296,59486
325,59497
359,59508
299,59520
385,59531
269,59542
364,59554
298,59566
327,59577
362,59588
299,59599
386,59611
272,59623
367,59634
298,59645
325,59657
357,59668
297,59679
381,59692
266,59703
361,59714
289,59725
347,59737
427,59749
300,59760
345,59771
252,59783
360,59794
292,59805
326,59817
358,59829
301,59840
386,59851
270,59863
367,59874
300,59886
333,59897
367,59909
309,59920
394,59931
277,59942
373,59955
303,59966
334,59977
362,59988
303,60000
385,60011
